-25.0662013385 0.209987
-24.5648775953 0.250422
-24.06355384 0.285525
-23.5622300726 0.30086
-23.0609062932 0.284476
-22.5595825018 0.245924
-22.0582586984 0.215496
-21.5569348831 0.205938
-21.0556110559 0.209888
-20.5542872168 0.232308
-20.0529633659 0.245131
-19.5516395032 0.25106
-19.0503156287 0.2369
-18.5489917425 0.229147
-18.0476678446 0.257805
-17.546343935 0.301974
-17.0450200137 0.264849
-16.5436960809 0.231679
-16.0423721365 0.220824
-15.5410481805 0.223302
-15.039724213 0.240056
-14.5384002341 0.261538
-14.0370762437 0.271357
-13.5357522419 0.268151
-13.0344282287 0.252917
-12.5331042042 0.23629
-12.0317801684 0.218321
-11.5304561213 0.203771
-11.0291320629 0.206147
-10.5278079934 0.221285
-10.0264839126 0.246857
-9.52515982071 0.282957
-9.02383571769 0.300287
-8.52251160359 0.3159
-8.02118747845 0.319805
-7.51986334228 0.286936
-7.01853919513 0.26042
-6.51721503703 0.23491
-6.01589086801 0.216027
-5.51456668811 0.218648
-5.01324249735 0.243156
-4.51191829577 0.275592
-4.0105940834 0.281604
-3.50926986027 0.286852
-3.00794562643 0.292533
-2.50662138189 0.295183
-2.00529712669 0.285284
-1.50397286088 0.272745
-1.00264858447 0.263889
-0.501324297496 0.270556
0 0.293199
0.501324307989 0.309433
1.00264862644 0.309242
1.50397295532 0.300965
2.00529729459 0.292529
2.50662164423 0.295333
3.00794600419 0.274552
3.50927037446 0.233437
4.01059475498 0.201668
4.51191914574 0.202815
5.0132435467 0.198355
5.51456795782 0.190788
6.01589237908 0.185115
6.51721681044 0.173439
7.01854125186 0.17537
7.51986570333 0.180504
8.02119016479 0.168925
8.52251463622 0.151538
9.02383911759 0.126735
9.52516360887 0.0926268
10.02648811 0.0602263
10.527812621 0.0353136
11.0291371418 0.00630124
11.5304616724 0
12.0317862127 0.0408247
12.5331107627 0.0980533
13.0344353224 0.164494
13.5357598917 0.253248
14.0370844706 0.33619
14.5384090591 0.400464
15.0397336572 0.446251
15.5410582648 0.488672
16.0423828818 0.543801
16.5437075083 0.586184
17.0450321442 0.606381
17.5463567895 0.623034
18.0476814442 0.622249
18.5490061081 0.586878
19.0503307813 0.535938
19.5516554638 0.503721
20.0529801555 0.447005
20.5543048564 0.362922
21.0556295664 0.271748
21.5569542856 0.1624
22.0582790138 0.111017
22.5596037511 0.0975885
23.0609284974 0.134515
23.5622532527 0.189535
24.063578017 0.25287
24.5649027902 0.300499
25.0662275722 0.329696
