-25.0662944415 0.241094
-24.5649687681 0.279268
-24.0636430854 0.320342
-23.5623173935 0.345961
-23.0609916923 0.392562
-22.5596659819 0.410759
-22.0583402623 0.4015
-21.5570145335 0.40961
-21.0556887956 0.391453
-20.5543630486 0.383733
-20.0530372926 0.37518
-19.5517115275 0.36916
-19.0503857534 0.337073
-18.5490599704 0.28588
-18.0477341785 0.237051
-17.5464083776 0.183647
-17.045082568 0.128686
-16.5437567494 0.0914397
-16.0424309221 0.121094
-15.541105086 0.107258
-15.0397792412 0.102678
-14.5384533877 0.128972
-14.0371275255 0.148837
-13.5358016547 0.173489
-13.0344757753 0.192399
-12.5331498873 0.208697
-12.0318239908 0.23992
-11.5304980858 0.290583
-11.0291721724 0.343923
-10.5278462504 0.408306
-10.0265203201 0.452813
-9.52519438146 0.467527
-9.02386843445 0.460865
-8.52254247913 0.462535
-8.02121651554 0.467734
-7.51989054371 0.446626
-7.01856456368 0.4107
-6.51723857547 0.338963
-6.01591257913 0.207731
-5.51458657467 0.132209
-5.01326056215 0.123391
-4.51193454158 0.11561
-4.010608513 0.0913487
-3.50928247645 0.0543045
-3.00795643195 0.0195892
-2.50663037954 0
-2.00530431926 0.0256729
-1.50397825113 0.0479984
-1.00265217519 0.0599814
-0.501326091467 0.123211
0 0.171018
0.501326099181 0.201576
1.00265220604 0.201834
1.50397832055 0.20229
2.00530444268 0.213151
2.50663057239 0.216553
3.00795670964 0.209753
3.50928285442 0.183307
4.01060900668 0.138738
4.51193516639 0.116771
5.01326133352 0.110732
5.51458750803 0.110748
6.0159136899 0.110962
6.51723987909 0.114412
7.01856607556 0.119234
7.51989227929 0.126038
8.02121849025 0.135483
8.52254470839 0.148089
9.02387093369 0.161118
9.52519716611 0.176342
10.0265234056 0.193254
10.5278496522 0.213852
11.0291759058 0.23584
11.5305021664 0.259194
12.0318284339 0.284126
12.5331547084 0.308724
13.0344809898 0.338288
13.535807278 0.37203
14.0371335731 0.404372
14.5384598749 0.438932
15.0397861835 0.471965
15.5411124989 0.503152
16.0424388209 0.531853
16.5437651496 0.560051
17.045091485 0.582986
17.5464178269 0.601526
18.0477441754 0.618241
18.5490705305 0.630528
19.050396892 0.638285
19.55172326 0.641059
20.0530496345 0.63914
20.5543760153 0.632762
21.0557024025 0.638108
21.5570287961 0.64485
22.0583551959 0.635967
22.5596816021 0.608685
23.0610080144 0.566269
23.562334433 0.531406
24.0636608577 0.500864
24.5649872886 0.471333
25.0663137256 0.447965
