-25.0661661888 0.473455
-24.5648431485 0.490967
-24.0635200961 0.506374
-23.5621970316 0.502154
-23.0608739551 0.502085
-22.5595508667 0.508219
-22.0582277662 0.51169
-21.5569046538 0.503867
-21.0555815296 0.484071
-20.5542583934 0.480688
-20.0529352455 0.474614
-19.5516120857 0.469534
-19.0502889142 0.465879
-18.5489657309 0.465573
-18.0476425359 0.471652
-17.5463193293 0.466409
-17.044996111 0.452921
-16.5436728811 0.451313
-16.0423496397 0.457778
-15.5410263867 0.469168
-15.0397031222 0.480962
-14.5383798463 0.484816
-14.0370565588 0.490485
-13.53573326 0.491136
-13.0344099499 0.491191
-12.5330866283 0.472641
-12.0317632955 0.464714
-11.5304399514 0.447571
-11.029116596 0.414317
-10.5277932295 0.383042
-10.0264698517 0.302917
-9.52514646286 0.247167
-9.02382306286 0.252253
-8.52249965178 0.241226
-8.02117622966 0.218357
-7.51985279652 0.209819
-7.0185293524 0.18477
-6.51720589734 0.18665
-6.01588243135 0.190469
-5.51455895448 0.222282
-5.01323546677 0.240295
-4.51191196823 0.23996
-4.01058845891 0.257742
-3.50926493884 0.264791
-3.00794140804 0.265886
-2.50661786656 0.256068
-2.00529431443 0.261779
-1.50397075167 0.257267
-1.00264717833 0.250769
-0.501323594425 0.251619
0 0.242302
0.501323604916 0.238243
1.00264722029 0.232757
1.50397084609 0.232242
2.00529448228 0.221473
2.50661812883 0.201192
3.00794178571 0.205712
3.50926545288 0.202207
4.01058913032 0.19315
4.51191281798 0.187022
5.01323651584 0.182457
5.51456022386 0.205042
6.01588394201 0.189302
6.51720767027 0.182832
7.01853140858 0.194815
7.51985515693 0.229926
8.02117891529 0.295001
8.5225026836 0.311553
9.02382646185 0.341144
9.52515025001 0.324975
10.026474048 0.263564
10.5277978559 0.18197
11.0291216735 0.106019
11.530445501 0.0573305
12.0317693382 0
12.533093185 0.00323639
13.0344170416 0.0536168
13.5357409078 0.132629
14.0370647836 0.208276
14.5383886689 0.276274
15.0397125638 0.341741
15.5410364683 0.414407
16.0423603822 0.508131
16.5436843055 0.623981
17.0450082383 0.705115
17.5463321804 0.780064
18.0476561319 0.778508
18.5489800927 0.717457
19.0503040627 0.631489
19.551628042 0.543058
20.0529520306 0.450247
20.5542760283 0.344069
21.0556000351 0.254091
21.5569240511 0.192971
22.0582480762 0.131141
22.5595721103 0.116842
23.0608961534 0.179744
23.5622202055 0.257652
24.0635442666 0.367717
24.5648683366 0.522948
25.0661924155 0.560555
