-25.0660255493 0.889197
-24.5647053214 0.93657
-24.0633850815 0.987357
-23.5620648295 0.979298
-23.0607445655 0.959443
-22.5594242896 0.937632
-22.0581040017 0.899221
-21.5567837018 0.884316
-21.0554633901 0.866649
-20.5541430666 0.84741
-20.0528227312 0.815311
-19.551502384 0.786683
-19.0501820251 0.740131
-18.5488616545 0.687527
-18.0475412721 0.624759
-17.5462208781 0.558787
-17.0449004725 0.50047
-16.5435800554 0.477618
-16.0422596266 0.45201
-15.5409391863 0.409597
-15.0396187346 0.393353
-14.5382982713 0.408278
-14.0369777967 0.443774
-13.5356573106 0.49882
-13.0343368132 0.512527
-12.5330163045 0.501212
-12.0316957845 0.500981
-11.5303752532 0.509787
-11.0290547107 0.522289
-10.527734157 0.528712
-10.0264135921 0.5424
-9.52509301605 0.564927
-9.02377242893 0.584587
-8.52245183075 0.643864
-8.02113122153 0.666845
-7.51981060131 0.664706
-7.01848997012 0.633628
-6.517169328 0.495819
-6.01584867497 0.413474
-5.51452801107 0.355047
-5.01320733633 0.299483
-4.51188665078 0.249855
-4.01056595447 0.221288
-3.50924524741 0.222045
-3.00792452964 0.256482
-2.5066038012 0.283808
-2.00528306211 0.28813
-1.50396231242 0.293931
-1.00264155215 0.284867
-0.501320781329 0.288922
0 0.282137
0.501320791808 0.256773
1.00264159406 0.24282
1.50396240673 0.219592
2.00528322978 0.219592
2.50660406318 0.22531
3.0079249069 0.209429
3.5092457609 0.188801
4.01056662515 0.195131
4.51188749962 0.259121
5.01320838428 0.337724
5.51452927908 0.407565
6.01585018401 0.439849
6.51717109903 0.455081
7.0184920241 0.480535
7.51981295919 0.529147
8.02113390427 0.55829
8.52245485931 0.552485
9.02377582428 0.511324
9.52509679913 0.43236
10.0264177838 0.317092
10.5277387784 0.190367
11.0290597827 0.119887
11.5303807968 0.105268
12.0317018206 0.159275
12.5330228542 0.187117
13.0343438973 0.144659
13.5356649502 0.112748
14.0369860126 0.0554759
14.5383070846 0.0308118
15.0396281661 0.0442524
15.5409492571 0.0515886
16.0422703575 0
16.5435914675 0.011897
17.0449125868 0.0516959
17.5462337155 0.0887703
18.0475548535 0.12523
18.5488760008 0.165575
19.0501971574 0.221878
19.5515183232 0.258917
20.0528394983 0.293791
20.5541606825 0.291237
21.0554818758 0.27566
21.5568030783 0.297173
22.0581242898 0.369743
22.5594455104 0.416878
23.06076674 0.451078
23.5620879786 0.472995
24.0634092261 0.498518
24.5647304825 0.530507
25.0660517478 0.56219
