-25.0658848459 0.859665
-24.5645674318 0.789027
-24.0632500056 0.80534
-23.5619325674 0.862851
-23.0606151172 0.870393
-22.559297655 0.874015
-22.0579801809 0.884727
-21.5566626949 0.899241
-21.055345197 0.929802
-20.5540276873 0.948761
-20.0527101658 0.937875
-19.5513926325 0.959518
-19.0500750875 0.95539
-18.5487575307 0.970137
-18.0474399623 0.979342
-17.5461223823 0.924937
-17.0448047906 0.874163
-16.5434871874 0.828916
-16.0421695726 0.793424
-15.5408519463 0.768517
-15.0395343086 0.762925
-14.5382166594 0.742176
-14.0368989987 0.704133
-13.5355813267 0.667085
-13.0342636434 0.656549
-12.5329459487 0.624865
-12.0316282428 0.629295
-11.5303105256 0.631612
-11.0289927972 0.63335
-10.5276750576 0.637673
-10.0263573068 0.633139
-9.52503954496 0.625249
-9.023721772 0.613611
-8.52240398799 0.586626
-8.02108619296 0.547094
-7.51976838693 0.524969
-7.01845056995 0.51317
-6.51713274205 0.499058
-6.01581490325 0.463911
-5.51449705359 0.430077
-5.01317919311 0.400186
-4.51186132184 0.374819
-4.0105434398 0.356127
-3.50922554703 0.347138
-3.00790764357 0.34429
-2.50658972944 0.333906
-2.00527180469 0.322176
-1.50395386933 0.305539
-1.00263592341 0.279396
-0.501317966955 0.262686
0 0.238317
0.501317977424 0.19996
1.00263596528 0.150722
1.50395396355 0.10909
2.00527197218 0.0847612
2.50658999115 0.0495701
3.00790802043 0.0276861
3.50922605997 0.0267308
4.01054410976 0.0307931
4.51186216976 0.0344966
5.01318023993 0.0125406
5.51449832025 0
6.01581641067 0.0137926
6.51713451117 0.0497161
7.01845262172 0.120334
7.51977074227 0.247212
8.02108887281 0.373206
8.52240701329 0.508817
9.02372516369 0.64146
9.52504332397 0.740729
10.0263614941 0.832902
10.527679674 0.940216
11.0289978638 0.977182
11.5303160633 0.989631
12.0316342725 0.997154
12.5329524913 0.975717
13.0342707199 0.938479
13.535588958 0.921362
14.0369072058 0.923235
14.5382254631 0.926258
15.0395437299 0.931996
15.5408620062 0.912237
16.042180292 0.866451
16.5434985872 0.743971
17.0448168918 0.6031
17.5461352058 0.535729
18.0474535291 0.514878
18.5487718616 0.483971
19.0500902035 0.431746
19.5514085545 0.398157
20.0527269148 0.362374
20.5540452842 0.309302
21.0553636628 0.269998
21.5566820505 0.24225
22.0580004472 0.220586
22.559318853 0.316061
23.0606372677 0.476457
23.5619556915 0.568962
24.0632741242 0.54116
24.5645925657 0.479974
25.0659110162 0.485753
