-25.0664168868 0.434842
-24.5650886965 0.494975
-24.0637604997 0.563038
-23.5624322963 0.637381
-23.0611040865 0.663935
-22.5597758702 0.678432
-22.0584476476 0.681579
-21.5571194185 0.638907
-21.0557911831 0.593982
-20.5544629414 0.581687
-20.0531346934 0.595226
-19.5518064391 0.610718
-19.0504781787 0.603105
-18.549149912 0.588937
-18.0478216392 0.595832
-17.5464933603 0.587473
-17.0451650753 0.582992
-16.5438367843 0.590329
-16.0425084872 0.603777
-15.5411801842 0.613217
-15.0398518752 0.627239
-14.5385235603 0.646154
-14.0371952394 0.669754
-13.5358669128 0.689577
-13.0345385803 0.703287
-12.533210242 0.705678
-12.031881898 0.694556
-11.5305535482 0.680779
-11.0292251928 0.630585
-10.5278968317 0.609569
-10.026568465 0.606882
-9.52524009267 0.602583
-9.0239117148 0.583063
-8.5225833314 0.54576
-8.02125494251 0.527772
-7.51992654816 0.491599
-7.01859814838 0.445097
-6.5172697432 0.427484
-6.01594133267 0.4191
-5.5146129168 0.422486
-5.01328449564 0.416896
-4.51195606922 0.416897
-4.01062763757 0.408764
-3.50929920072 0.38306
-3.0079707587 0.338531
-2.50664231156 0.274023
-2.00531385931 0.20251
-1.503985402 0.129786
-1.00265693966 0.057068
-0.501328472313 0.0139843
0 0
0.501328477248 0.0220136
1.0026569594 0.0832393
1.50398544641 0.145531
2.00531393827 0.170991
2.50664243493 0.164725
3.00797093635 0.12923
3.50929944252 0.086659
4.01062795339 0.071252
4.51195646893 0.0833543
5.01328498911 0.108123
5.5146135139 0.131834
6.01594204326 0.153452
6.51727057716 0.175505
7.01859911557 0.1978
7.51992765845 0.21862
8.02125620578 0.23954
8.52258475752 0.259203
9.02391331363 0.2767
9.52524187408 0.293916
10.0265704388 0.30955
10.5278990079 0.324453
11.0292275812 0.337903
11.5305561587 0.351038
12.0318847404 0.363194
12.5332133262 0.373813
13.0345419161 0.384276
13.5358705101 0.394582
14.0371991082 0.405498
14.5385277103 0.416011
15.0398563164 0.428259
15.5411849264 0.440755
16.0425135403 0.454262
16.5438421581 0.467738
17.0451707798 0.481973
17.5464994053 0.496005
18.0478280346 0.510045
18.5491566676 0.524302
19.0504853043 0.537159
19.5518139447 0.548578
20.0531425888 0.558512
20.5544712365 0.566347
21.0557998878 0.570129
21.5571285427 0.571134
22.058457201 0.5679
22.5597858629 0.560451
23.0611145282 0.548625
23.562443197 0.532241
24.0637718691 0.512637
24.5651005446 0.488651
25.0664292234 0.460854
