-25.0660607152 0.786995
-24.5647397841 0.802109
-24.063418841 0.80676
-23.5620978857 0.810302
-23.0607769185 0.809657
-22.5594559393 0.805796
-22.0581349481 0.821331
-21.556813945 0.819688
-21.0554929301 0.828424
-20.5541719032 0.852896
-20.0528508646 0.872686
-19.5515298141 0.868791
-19.050208752 0.838687
-18.548887678 0.833073
-18.0475665924 0.838102
-17.5462454952 0.815592
-17.0449243863 0.753184
-16.5436032658 0.661471
-16.0422821337 0.57568
-15.5409609902 0.499448
-15.0396398351 0.426394
-14.5383186686 0.355968
-14.0369974906 0.29313
-13.5356763013 0.233111
-13.0343551005 0.210464
-12.5330338885 0.194548
-12.0317126651 0.176012
-11.5303914305 0.220545
-11.0290701847 0.228038
-10.5277489276 0.214243
-10.0264276594 0.226884
-9.52510638005 0.211208
-9.02378508959 0.191695
-8.52246378806 0.158488
-8.0211424755 0.148887
-7.51982115193 0.173125
-7.01849981739 0.197811
-6.5171784719 0.258228
-6.01585711552 0.301376
-5.51453574825 0.337354
-5.01321437015 0.380475
-4.51189298123 0.405228
-4.01057158155 0.399779
-3.50925017111 0.394394
-3.00792874997 0.355195
-2.50660731814 0.337306
-2.00528587568 0.324079
-1.5039644226 0.309859
-1.00264295893 0.293152
-0.501321484724 0.28277
0 0.273959
0.501321495206 0.259552
1.00264300086 0.245567
1.50396451694 0.249301
2.00528604339 0.242641
2.5066075802 0.221352
3.00792912733 0.204997
3.50925068474 0.161347
4.01057225241 0.14745
4.5118938303 0.15681
5.01321541838 0.214737
5.51453701661 0.261697
6.01585862496 0.32147
6.51718024341 0.348294
7.01850187191 0.310959
7.51982351044 0.265442
8.02114515896 0.202878
8.52246681744 0.134718
9.02378848585 0.0511293
9.52511016415 0
10.0264318523 0.0126452
10.5277535503 0.0516582
11.0290752581 0.0918832
11.5303969756 0.128331
12.0317187029 0.168213
12.5330404399 0.163633
13.0343621866 0.108256
13.5356839428 0.067656
14.0370057087 0.0280252
14.5383274842 0.0146599
15.0396492691 0.0543542
15.5409710636 0.116905
16.0422928676 0.137632
16.543614681 0.129459
17.0449365038 0.126316
17.5462583359 0.159417
18.0475801774 0.215988
18.5489020282 0.279276
19.0502238883 0.354101
19.5515457576 0.386948
20.0528676362 0.380764
20.5541895239 0.357122
21.0555114207 0.343564
21.5568333267 0.368394
22.0581552417 0.435841
22.5594771658 0.496521
23.0607990989 0.538342
23.562121041 0.57086
24.063442992 0.561035
24.5647649519 0.537694
25.0660869208 0.50947
