-25.0659552055 1.06224
-24.5646363843 1.0765
-24.0633175511 1.10052
-23.5619987059 1.05975
-23.0606798486 0.998276
-22.5593609794 0.918421
-22.0580420982 0.837276
-21.5567232052 0.79581
-21.0554043002 0.795793
-20.5540853834 0.810385
-20.0527664548 0.806635
-19.5514475144 0.830463
-19.0501285623 0.839701
-18.5488095984 0.859224
-18.0474906229 0.883928
-17.5461716357 0.867968
-17.044852637 0.845273
-16.5435336266 0.81746
-16.0422146047 0.778696
-15.5408955712 0.70309
-15.0395765263 0.642934
-14.5382574699 0.574522
-14.0369384021 0.52119
-13.535619323 0.465958
-13.0343002324 0.466687
-12.5329811306 0.458139
-12.0316620174 0.4634
-11.530342893 0.466358
-11.0290237574 0.460546
-10.5277046106 0.459827
-10.0263854526 0.45759
-9.52506628351 0.465429
-9.02374710331 0.460955
-8.52242791206 0.457858
-8.02110870977 0.439302
-7.51978949649 0.43091
-7.01847027225 0.427693
-6.51715103708 0.433633
-6.01583179101 0.416257
-5.51451253407 0.378481
-5.0131932663 0.333431
-4.51187398773 0.289023
-4.0105546984 0.267827
-3.50923539833 0.266453
-3.00791608755 0.280927
-2.50659676611 0.275863
-2.00527743403 0.25648
-1.50395809135 0.255541
-1.00263873809 0.225424
-0.501319374299 0.225168
0 0.218436
0.501319384776 0.164759
1.00263877999 0.129491
1.50395818561 0.08606
2.00527760161 0.0566616
2.50659702796 0.0274283
3.00791646461 0.00267311
3.50923591155 0
4.01055536872 0.00103012
4.51187483611 0.0107482
5.01319431369 0.0347752
5.5145138014 0.0874973
6.01583329924 0.18853
6.51715280715 0.289646
7.01847232512 0.378506
7.5197918531 0.515684
8.02111139107 0.645559
8.52243093899 0.808377
9.02375049683 0.984008
9.52507006456 1.16711
10.0263896421 1.31434
10.5277092295 1.3931
11.0290288267 1.38526
11.5303484337 1.3532
12.0316680503 1.28001
12.5329876767 1.2035
13.0343073127 1.14145
13.5356269584 1.06543
14.0369466136 1.02424
14.5382662784 0.926283
15.0395859527 0.833979
15.5409056366 0.66928
16.0422253298 0.552902
16.5435450326 0.435123
17.0448647447 0.271791
17.5461844661 0.172979
18.047504197 0.129892
18.5488239371 0.142293
19.0501436864 0.196004
19.551463445 0.245572
20.0527832129 0.249277
20.5541029898 0.265969
21.055422776 0.249584
21.5567425712 0.225126
22.0580623755 0.220797
22.5593821888 0.267056
23.0607020111 0.341166
23.5620218425 0.41875
24.0633416827 0.481171
24.5646615319 0.529932
25.0659813899 0.581111
