-25.0664520638 0.464445
-24.56512317 0.481246
-24.0637942697 0.514083
-23.5624653629 0.543756
-23.0611364495 0.552987
-22.5598075298 0.532839
-22.0584786036 0.499747
-21.557149671 0.517904
-21.0558207321 0.528089
-20.5544917869 0.520216
-20.0531628354 0.519633
-19.5518338776 0.541353
-19.0505049136 0.565131
-18.5491759435 0.571653
-18.0478469672 0.570702
-17.5465179847 0.561857
-17.0451889962 0.558094
-16.5438600016 0.563538
-16.042531001 0.561281
-15.5412019945 0.555705
-15.0398729819 0.54959
-14.5385439635 0.550113
-14.0372149391 0.544567
-13.5358859089 0.515891
-13.0345568729 0.472938
-12.5332278311 0.459167
-12.0318987835 0.465507
-11.5305697302 0.467806
-11.0292406712 0.472816
-10.5279116066 0.46036
-10.0265825363 0.429279
-9.52525346044 0.412095
-9.02392437902 0.380585
-8.52259529206 0.366593
-8.02126619961 0.35078
-7.51993710171 0.337368
-7.01860799837 0.338766
-6.51727888963 0.34737
-6.01594977553 0.313591
-5.51462065611 0.316542
-5.01329153138 0.320158
-4.51196240139 0.28356
-4.01063326617 0.22356
-3.50930412575 0.186539
-3.00797498016 0.161871
-2.50664582944 0.123505
-2.00531667362 0.0780418
-1.50398751274 0.0377858
-1.00265834682 0.0052854
-0.501329175892 0
0 0.0209657
0.501329180828 0.0708825
1.00265836656 0.150867
1.50398755716 0.221443
2.0053167526 0.271395
2.50664595284 0.283978
3.00797515786 0.252614
3.50930436761 0.242627
4.01063358207 0.249429
4.5119628012 0.257529
5.01329202498 0.269851
5.51462125336 0.284318
6.01595048632 0.299278
6.51727972381 0.313946
7.01860896582 0.328308
7.5199382123 0.343556
8.02126746323 0.35743
8.52259671856 0.369148
9.02392597827 0.378702
9.52525524233 0.388419
10.0265845107 0.397396
10.5279137833 0.404971
11.0292430602 0.410451
11.5305723413 0.415814
12.0319016266 0.418917
12.5332309161 0.422972
13.0345602096 0.425923
13.5358895072 0.429068
14.0372188089 0.433382
14.5385481146 0.436797
15.0398774243 0.442487
15.5412067379 0.450332
16.0425360555 0.458762
16.5438653769 0.468598
17.0451947022 0.478969
17.5465240313 0.490708
18.0478533642 0.501981
18.5491827008 0.513521
19.0505120412 0.523869
19.5518413852 0.53347
20.0531707329 0.540983
20.5545000842 0.547035
21.0558294392 0.548868
21.5571587976 0.547176
22.0584881596 0.541614
22.5598175251 0.532034
23.061146894 0.517709
23.5624762664 0.500008
24.0638056421 0.477582
24.5651350213 0.449931
25.0664644037 0.418915
