-25.0659200276 1.18117
-24.56460191 1.14364
-24.0632837802 1.09876
-23.5619656385 1.05271
-23.0606474847 0.995062
-22.559329319 0.94484
-22.0580111413 0.918766
-21.5566929517 0.913446
-21.0553747503 0.881504
-20.554056537 0.84297
-20.0527383119 0.814938
-19.551420075 0.772424
-19.0501018264 0.763331
-18.548783566 0.756201
-18.047465294 0.755111
-17.5461470104 0.777594
-17.0448287151 0.757586
-16.5435104083 0.746382
-16.0421920899 0.742029
-15.54087376 0.751956
-15.0395554186 0.763599
-14.5382370658 0.760191
-14.0369187015 0.772682
-13.5356003259 0.814513
-13.0342819389 0.81047
-12.5329635406 0.831738
-12.0316451311 0.798716
-11.5303267102 0.768536
-11.0290082782 0.734274
-10.5276898349 0.683876
-10.0263713805 0.611953
-9.52505291498 0.539237
-9.02373443836 0.475968
-8.52241595069 0.426327
-8.02109745199 0.397538
-7.5197789423 0.358325
-7.01846042165 0.324057
-6.51714189007 0.277894
-6.0158233476 0.277277
-5.51450479427 0.263848
-5.0131862301 0.221819
-4.51186765514 0.217879
-4.01054906941 0.204228
-3.50923047296 0.185484
-3.0079118658 0.172073
-2.50659324798 0.176618
-2.00527461952 0.190174
-1.50395598046 0.189334
-1.00263733083 0.18267
-0.501318670668 0.189432
0 0.194252
0.501318681138 0.174451
1.00263737272 0.156274
1.5039560747 0.143149
2.00527478705 0.132265
2.50659350975 0.0977522
3.00791224275 0.0472633
3.50923098603 0.00794571
4.01054973956 0
4.51186850329 0.00779182
5.0131872772 0.0216478
5.51450606126 0.0355326
6.01582485542 0.0737231
6.51714365967 0.123434
7.01846247397 0.196503
7.51978129828 0.34174
8.02110013257 0.520752
8.52241897681 0.689369
9.02373783097 0.866964
9.52505669501 1.04334
10.0263755689 1.20313
10.5276944526 1.3516
11.0290133461 1.44674
11.5303322494 1.49364
12.0316511623 1.45969
12.532970085 1.40533
13.0342890173 1.34211
13.5356079593 1.26666
14.0369269108 1.18797
14.5382458719 1.09703
15.0395648425 1.05341
15.5408838226 1.01651
16.0422028122 0.972022
16.5435218112 0.843307
17.0448408196 0.678944
17.5461598373 0.562981
18.0474788644 0.475165
18.5487979008 0.427194
19.0501169465 0.397787
19.5514360013 0.391339
20.0527550654 0.400647
20.5540741387 0.390654
21.055393221 0.413706
21.5567123125 0.476074
22.0580314131 0.548562
22.5593505227 0.546743
23.0606696413 0.478223
23.5619887688 0.400807
24.0633079053 0.383764
24.5646270507 0.416586
25.065946205 0.491428
