-25.066131035 0.73993
-24.5648086977 0.741211
-24.0634863483 0.73353
-23.5621639868 0.730229
-23.0608416133 0.736384
-22.5595192279 0.738995
-22.0581968304 0.748434
-21.5568744211 0.760502
-21.0555519998 0.76766
-20.5542295667 0.772596
-20.0529071217 0.785688
-19.551584665 0.779483
-19.0502621965 0.764518
-18.5489397163 0.763077
-18.0476172243 0.774447
-17.5462947207 0.789647
-17.0449722055 0.803162
-16.5436496787 0.807252
-16.0423271403 0.792941
-15.5410045904 0.792436
-15.0396820289 0.783044
-14.538359456 0.747568
-14.0370368717 0.713203
-13.535714276 0.685048
-13.0343916689 0.659321
-12.5330690504 0.630024
-12.0317464207 0.615531
-11.5304237796 0.626839
-11.0291011274 0.643473
-10.5277784639 0.642762
-10.0264557893 0.62611
-9.52513310346 0.614719
-9.02381040656 0.600789
-8.52248769859 0.582565
-8.02116497957 0.55287
-7.51984224954 0.514034
-7.01851950853 0.512715
-6.51719675658 0.488467
-6.01587399371 0.495044
-5.51455121997 0.485563
-5.01322843537 0.510376
-4.51190563996 0.477069
-4.01058283377 0.387723
-3.50926001683 0.344134
-3.00793718917 0.34099
-2.50661435083 0.343816
-2.00529150183 0.355948
-1.50396864222 0.365452
-1.00264577202 0.381525
-0.501322891272 0.388378
0 0.392018
0.501322901758 0.402762
1.00264581397 0.410783
1.50396873661 0.407526
2.00529166964 0.387363
2.50661461302 0.352466
3.00793756673 0.318977
3.50926053074 0.294892
4.01058350499 0.292368
4.51190648948 0.296043
5.01322948416 0.28514
5.514552489 0.260302
6.01587550397 0.263089
6.51719852903 0.287244
7.01852156416 0.309813
7.51984460932 0.336818
8.02116766447 0.370114
8.52249072959 0.397456
9.02381380464 0.446762
9.52513688959 0.510279
10.0264599844 0.567724
10.5277830891 0.608966
11.0291062035 0.600156
11.5304293277 0.512303
12.0317524617 0.411306
12.5330756053 0.287999
13.0343987587 0.133946
13.5357219216 0.0383114
14.0370450942 0.00115903
14.5383682764 0
15.039691468 0.0910737
15.5410146692 0.185672
16.0423378799 0.300485
16.5436611 0.413296
17.0449843295 0.541845
17.5463075684 0.655461
18.0476308166 0.744683
18.5489540742 0.766796
19.050277341 0.782063
19.5516006171 0.773385
20.0529239023 0.751432
20.5542471968 0.698162
21.0555705004 0.614852
21.5568938131 0.526717
22.0582171349 0.469305
22.5595404658 0.426291
23.0608638056 0.467665
23.5621871545 0.543346
24.0635105123 0.608749
24.564833879 0.693276
25.0661572546 0.771325
