-25.0660958771 0.869969
-24.5647742429 0.871414
-24.0634525965 0.88348
-23.5621309382 0.933175
-23.0608092678 0.989089
-22.5594875854 1.00417
-22.058165891 0.962732
-21.5568441848 0.955362
-21.0555224666 0.973568
-20.5542007366 0.976187
-20.0528789948 0.943887
-19.5515572412 0.91452
-19.0502354758 0.888862
-18.5489136986 0.889659
-18.0475919098 0.896281
-17.5462701094 0.886205
-17.0449482973 0.85001
-16.5436264736 0.825137
-16.0423046383 0.799904
-15.5409827915 0.780414
-15.0396609332 0.764333
-14.5383390635 0.752263
-14.0370171823 0.741466
-13.5356952897 0.727177
-13.0343733857 0.727832
-12.5330514705 0.706742
-12.0317295439 0.69796
-11.530407606 0.684022
-11.0290856569 0.704706
-10.5277636966 0.706656
-10.0264417251 0.651877
-9.52511974252 0.558947
-9.0237977488 0.465793
-8.52247574401 0.369439
-8.02115372818 0.274659
-7.51983170134 0.206439
-7.01850966352 0.154192
-6.51718761477 0.12066
-6.0158655551 0.0890072
-5.51454348455 0.120897
-5.01322140316 0.146877
-4.51189931096 0.187596
-4.01057720798 0.223498
-3.50925509425 0.243197
-3.00793296981 0.296635
-2.50661083469 0.345885
-2.00528868892 0.377863
-1.50396653253 0.410969
-1.00264436556 0.440556
-0.501322188038 0.458008
0 0.490571
0.501322198524 0.548621
1.0026444075 0.57779
1.50396662689 0.549748
2.00528885668 0.524427
2.50661109682 0.471982
3.00793334727 0.434894
3.50925560802 0.429327
4.01057787903 0.432352
4.51190016025 0.439961
5.01322245167 0.399164
5.51454475325 0.333871
6.01586706495 0.2868
6.51718938675 0.267445
7.0185117186 0.262075
7.51983406048 0.274959
8.02115641236 0.291095
8.5224787742 0.287583
9.02380114597 0.27873
9.52512352764 0.297493
10.0264459192 0.348019
10.5277683205 0.412907
11.0290907317 0.468464
11.5304131526 0.503171
12.0317355833 0.490251
12.5330580236 0.434442
13.0343804737 0.345983
13.5357029333 0.203508
14.0370254026 0.061181
14.5383478814 0
15.0396703698 0.0655415
15.5409928677 0.166185
16.042315375 0.213265
16.5436378918 0.216258
17.044960418 0.255554
17.5462829536 0.329279
18.0476054985 0.428979
18.5489280527 0.52336
19.0502506162 0.59382
19.5515731889 0.635075
20.0528957709 0.660102
20.554218362 0.677321
21.0555409623 0.68999
21.5568635716 0.684432
22.0581861901 0.643551
22.5595088176 0.601295
23.0608314541 0.553774
23.5621540996 0.521838
24.0634767541 0.531874
24.5647994175 0.541492
25.0661220897 0.592609
