-25.0662364842 0.102575
-24.5649120381 0.126809
-24.06358758 0.228257
-23.5622631098 0.290473
-23.0609386275 0.328276
-22.5596141333 0.361576
-22.058289627 0.356326
-21.5569651089 0.31368
-21.0556405788 0.263372
-20.5543160369 0.208553
-20.0529914831 0.162129
-19.5516669175 0.141538
-19.0503423402 0.12683
-18.5490177511 0.112506
-18.0476931503 0.0778236
-17.5463685378 0.0501151
-17.0450439137 0.0347038
-16.5437192779 0.0364055
-16.0423946306 0.03535
-15.5410699718 0.0311321
-15.0397453014 0.0292183
-14.5384206196 0.03224
-14.0370959263 0.0396605
-13.5357712216 0.0477025
-13.0344465055 0.0551005
-12.5331217781 0.060009
-12.0317970393 0.0639478
-11.5304722893 0.0742616
-11.029147528 0.0875829
-10.5278227555 0.0854693
-10.0264979718 0.0807443
-9.52517317699 0.0779326
-9.02384837104 0.0849462
-8.52252355401 0.0733561
-8.02119872592 0.0398661
-7.51987388681 0.0141143
-7.01854903671 0
-6.51722417566 0.0205304
-6.01589930369 0.0715584
-5.51457442083 0.0923823
-5.01324952711 0.0891676
-4.51192462256 0.0774699
-4.01059970723 0.0687256
-3.50927478113 0.0721769
-3.00794984432 0.0829689
-2.5066248968 0.0844511
-2.00529993863 0.0728955
-1.50397496983 0.0548899
-1.00264999044 0.0286765
-0.501325000484 0.0398322
0 0.0869033
0.501325010982 0.150627
1.00265003242 0.195543
1.5039750643 0.210616
2.00530010657 0.195088
2.50662515921 0.161527
3.00795022218 0.106673
3.50927529546 0.0714354
4.01060037899 0.0124677
4.51192547277 0.00197846
5.01325057674 0.0137821
5.51457569088 0.0369896
6.01590081516 0.0331064
6.51722594954 0.0327481
7.018551094 0.0313426
7.51987624849 0.0295951
8.02120141298 0.0288643
8.52252658745 0.0274161
9.02385177186 0.0275434
9.52517696617 0.0281621
10.0265021704 0.0309932
10.5278273844 0.0382422
11.0291526082 0.0497671
11.5304778418 0.0626091
12.0318030852 0.0824166
12.5331283383 0.10589
13.034453601 0.138236
13.5357788734 0.178955
14.0371041554 0.231751
14.538429447 0.283846
15.0397547481 0.331337
15.5410800587 0.374167
16.0424053789 0.413271
16.5437307084 0.450099
17.0450560474 0.477323
17.5463813958 0.49741
18.0477067535 0.515957
18.5490321205 0.526779
19.0503574968 0.539061
19.5516828824 0.525217
20.0530082772 0.527909
20.5543336812 0.544036
21.0556590943 0.462366
21.5569845166 0.402004
22.0583099479 0.347157
22.5596353883 0.304296
23.0609608377 0.269182
23.5622862961 0.241323
24.0636117634 0.221802
24.5649372397 0.201121
25.0662627249 0.166716
