-25.0025588731 0.981935
-24.5025107431 0.853604
-24.0024624888 0.730585
-23.50241411 0.612226
-23.0023656068 0.539122
-22.5023169792 0.478312
-22.0022682272 0.382098
-21.5022193508 0.325809
-21.0021703501 0.287185
-20.5021212249 0.253007
-20.0020719753 0.271108
-19.5020226013 0.334453
-19.0019731029 0.410728
-18.5019234802 0.472754
-18.001873733 0.526784
-17.5018238615 0.614623
-17.0017738655 0.647216
-16.5017237452 0.679245
-16.0016735005 0.712968
-15.5016231313 0.742469
-15.0015726379 0.827949
-14.50152202 0.879829
-14.0014712777 0.854189
-13.5014204111 0.82354
-13.0013694201 0.785512
-12.5013183047 0.709802
-12.0012670649 0.612665
-11.5012157007 0.501044
-11.0011642122 0.399224
-10.5011125993 0.338943
-10.001060862 0.327722
-9.50100900036 0.37567
-9.00095701434 0.397457
-8.50090490395 0.411919
-8.00085266919 0.415922
-7.50080031007 0.392757
-7.00074782657 0.37622
-6.50069521872 0.38287
-6.0006424865 0.404274
-5.50058962992 0.404137
-5.00053664898 0.4066
-4.50048354367 0.393281
-4.00043031402 0.37979
-3.50037696 0.310988
-3.00032348163 0.288633
-2.5002698789 0.228847
-2.00021615182 0.143959
-1.50016230039 0.0951467
-1.00010832461 0.0903078
-0.500054224479 0.0870055
0 0.1165
0.500054348825 0.122346
1.00010882199 0.112758
1.50016341951 0.111337
2.00021814137 0.0924095
2.50027298757 0.058124
3.0003279581 0.0317475
3.50038305298 0.0130358
4.0004382722 0
4.50049361575 0.0204931
5.00054908363 0.0651673
5.50060467585 0.13163
6.0006603924 0.233191
6.50071623328 0.354877
7.0007721985 0.459833
7.50082828803 0.556555
8.0008845019 0.717483
8.50094084009 0.784698
9.00099730261 0.783747
9.50105388945 0.834214
10.0011106006 0.831374
10.5011674361 0.812572
11.0012243959 0.759182
11.50128148 0.691335
12.0013386884 0.652015
12.5013960212 0.604381
13.0014534782 0.602678
13.5015110596 0.582467
14.0015687653 0.571501
14.5016265953 0.560641
15.0016845496 0.528222
15.5017426282 0.47461
16.0018008311 0.456427
16.5018591583 0.482669
17.0019176098 0.546023
17.5019761856 0.629
18.0020348858 0.652132
18.5020937102 0.653735
19.0021526589 0.667852
19.5022117319 0.730988
20.0022709292 0.853417
20.5023302508 0.948706
21.0023896967 0.986549
21.5024492668 0.994376
22.0025089613 0.97045
22.50256878 0.950642
23.0026287231 0.973569
23.5026887904 0.998237
24.002748982 1.02675
24.5028092978 1.02983
25.002869738 1.0533
