-25.0025100416 1.45095
-24.5024628847 1.44208
-24.0024156036 1.39823
-23.5023681982 1.35448
-23.0023206685 1.28002
-22.5022730146 1.24003
-22.0022252364 1.19828
-21.5021773339 1.13547
-21.0021293072 1.03358
-20.5020811563 0.91372
-20.0020328811 0.806815
-19.5019844816 0.731862
-19.0019359579 0.668715
-18.50188731 0.60905
-18.0018385378 0.564669
-17.5017896413 0.543975
-17.0017406206 0.532188
-16.5016914757 0.514879
-16.0016422065 0.501302
-15.5015928131 0.491025
-15.0015432954 0.480104
-14.5014936535 0.480386
-14.0014438874 0.489064
-13.501393997 0.515317
-13.0013439824 0.544133
-12.5012938436 0.557843
-12.0012435805 0.568687
-11.5011931932 0.560108
-11.0011426817 0.538763
-10.5010920459 0.492259
-10.0010412859 0.383839
-9.50099040169 0.29022
-9.00093939324 0.209867
-8.50088826057 0.146646
-8.00083700368 0.0844184
-7.50078562256 0.0375376
-7.00073411722 0.0037711
-6.50068248766 0.00465376
-6.00063073389 0.0221098
-5.5005788559 0.0173591
-5.00052685369 0.00556295
-4.50047472726 0.00731071
-4.00042247663 0
-3.50037010178 0.00428494
-3.00031760272 0.010642
-2.50026497945 0.0204779
-2.00021223197 0.0251532
-1.50015936029 0.0208778
-1.0001063644 0.0129587
-0.5000532443 0.0147574
0 0.00101019
0.500053368501 0.00225912
1.0001068612 0.0290228
1.5001604781 0.0706303
2.00021421921 0.181529
2.5002680845 0.338761
3.00032207399 0.473866
3.50037618768 0.626183
4.00043042556 0.736518
4.50048478763 0.767243
5.0005392739 0.727886
5.50059388435 0.674819
6.00064861899 0.642768
6.50070347781 0.647622
7.00075846082 0.677288
7.50081356802 0.682378
8.0008687994 0.655276
8.50092415496 0.656445
9.0009796347 0.647217
9.50103523861 0.638098
10.0010909667 0.649846
10.501146819 0.682876
11.0012027954 0.70274
11.501258896 0.7109
12.0013151208 0.718888
12.5013714698 0.740321
13.0014279429 0.764763
13.5014845402 0.784766
14.0015412617 0.790423
14.5015981073 0.809651
15.0016550771 0.838553
15.5017121711 0.859245
16.0017693892 0.953954
16.5018267315 1.05444
17.0018841979 1.08871
17.5019417885 1.10741
18.0019995033 1.15422
18.5020573422 1.19239
19.0021153052 1.20271
19.5021733924 1.18977
20.0022316038 1.15902
20.5022899393 1.15834
21.0023483989 1.15356
21.5024069827 1.15472
22.0024656907 1.15012
22.5025245228 1.11486
23.002583479 1.07808
23.5026425594 1.02798
24.0027017639 0.941834
24.5027610925 0.886202
25.0028205453 0.853593
