-24.9380477939 1.05584
-24.4392931924 1.056
-23.9405383321 1.02528
-23.441783213 0.990946
-22.9430278348 0.988421
-22.4442721977 0.985065
-21.9455163016 0.98221
-21.4467601465 0.980439
-20.9480037323 0.978951
-20.449247059 0.969474
-19.9504901266 0.957058
-19.4517329351 0.960175
-18.9529754844 0.983109
-18.4542177744 1.00662
-17.9554598052 1.03642
-17.4567015768 0.992567
-16.957943089 0.948094
-16.4591843419 0.911359
-15.9604253354 0.883542
-15.4616660696 0.875592
-14.9629065443 0.878473
-14.4641467595 0.881024
-13.9653867153 0.880413
-13.4666264115 0.89206
-12.9678658482 0.843683
-12.4691050253 0.831849
-11.9703439428 0.82387
-11.4715826007 0.807832
-10.9728209989 0.798471
-10.4740591374 0.773633
-9.97529701611 0.73119
-9.4765346351 0.686105
-8.97777199429 0.616277
-8.47900909365 0.561728
-7.98024593316 0.50884
-7.48148251279 0.478365
-6.98271883249 0.43537
-6.48395489225 0.379701
-5.98519069203 0.348252
-5.4864262318 0.394345
-4.98766151153 0.452606
-4.4888965312 0.463742
-3.99013129076 0.386955
-3.49136579019 0.29826
-2.99260002946 0.15935
-2.49383400854 0.0853687
-1.9950677274 0.0365012
-1.496301186 0.0181963
-0.997534384326 0.020842
-0.498767322336 0.0159468
0 0.0111169
0.498767582709 0.00638022
0.997535425824 0.00241553
1.49630352937 0
1.99507189339 0.0014733
2.4938405179 0.00448759
2.99260940294 0.00997962
3.49137854853 0.0171155
3.99014795471 0.0305785
4.48891762151 0.0443025
4.98768754896 0.0557667
5.48645773709 0.0809354
5.98522818592 0.10187
6.4839988955 0.127134
6.98276986584 0.156625
7.48154109698 0.208765
7.98031258896 0.275326
8.47908434179 0.345367
8.97785635552 0.414903
9.47662863016 0.476267
9.97540116576 0.50895
10.4741739623 0.58708
10.9729470199 0.697982
11.4717203386 0.798183
11.9704939183 0.870001
12.4692677591 0.921573
12.968041861 0.936775
13.4668162241 0.945435
13.9655908484 0.955645
14.464365734 0.955103
14.9631408808 0.997371
15.4619162888 0.999495
15.9606919582 0.998154
16.4594678889 0.972719
16.958244081 0.941696
17.4570205345 0.941465
17.9557972495 0.953614
18.4545742259 0.935299
18.9533514638 0.863916
19.4521289632 0.820011
19.9509067242 0.814059
20.4496847468 0.817273
20.948463031 0.790648
21.4472415768 0.769197
21.9460203843 0.74013
22.4447994536 0.705975
22.9435787845 0.682569
23.4423583773 0.671437
23.9411382318 0.666149
24.4399183482 0.624374
24.9386987264 0.58735
