-25.0024368702 1.29327
-24.5023911714 1.32132
-24.0023453486 1.37716
-23.5022994017 1.31115
-23.0022533307 1.22996
-22.5022071358 1.21978
-22.0021608167 1.30535
-21.5021143737 1.37043
-21.0020678066 1.35737
-20.5020211155 1.24511
-20.0019743004 1.01864
-19.5019273612 0.93404
-19.001880298 0.840247
-18.5018331107 0.825418
-18.0017857994 0.86004
-17.5017383641 1.00136
-17.0016908048 1.13103
-16.5016431215 1.23882
-16.0015953141 1.32881
-15.5015473827 1.42573
-15.0014993272 1.46607
-14.5014511478 1.46475
-14.0014028443 1.44796
-13.5013544169 1.43522
-13.0013058654 1.37997
-12.5012571898 1.30504
-12.0012083903 1.2352
-11.5011594668 1.18379
-11.0011104192 1.12436
-10.5010612476 1.02057
-10.001011952 0.895104
-9.50096253245 0.741026
-9.00091298885 0.571512
-8.50086332125 0.423531
-8.00081352963 0.283377
-7.50076361401 0.181501
-7.00071357439 0.143126
-6.50066341077 0.10652
-6.00061312314 0.0591884
-5.50056271152 0.0235694
-5.0005121759 0.00837813
-4.50046151628 0.00164747
-4.00041073266 0
-3.50035982505 0.00638082
-3.00030879344 0.0145737
-2.50025763784 0.0302667
-2.00020635825 0.0442523
-1.50015495467 0.0553589
-1.0001034271 0.0637339
-0.500051775544 0.0904552
0 0.132725
0.500051899529 0.172534
1.00010392304 0.273683
1.50015607054 0.327357
2.00020834202 0.323485
2.50026073747 0.334546
3.00031325691 0.323767
3.50036590032 0.31687
4.00041866772 0.311158
4.50047155908 0.344857
5.00052457442 0.393134
5.50057771374 0.441821
6.00063097702 0.460091
6.50068436428 0.487217
7.0007378755 0.503101
7.50079151069 0.49239
8.00084526985 0.495754
8.50089915297 0.501572
9.00095316006 0.502823
9.50100729111 0.491607
10.0010615461 0.476561
10.5011159251 0.464239
11.001170428 0.477111
11.5012250549 0.476705
12.0012798057 0.533091
12.5013346805 0.592173
13.0013896793 0.677203
13.501444802 0.784145
14.0015000487 0.840778
14.5015554193 0.856208
15.0016109138 0.809908
15.5016665323 0.754575
16.0017222747 0.747383
16.5017781411 0.725107
17.0018341315 0.699446
17.5018902457 0.656021
18.0019464839 0.593047
18.5020028461 0.508702
19.0020593322 0.439927
19.5021159422 0.359323
20.0021726762 0.318457
20.5022295341 0.30906
21.0022865159 0.322982
21.5023436216 0.350669
22.0024008513 0.405025
22.5024582049 0.441728
23.0025156825 0.437025
23.5025732839 0.405022
24.0026310093 0.328143
24.5026888586 0.216571
25.0027468319 0.0912312
