-24.9479522502 0.542956
-24.4489992034 0.582842
-23.9500459121 0.633615
-23.4510923764 0.689253
-22.9521385963 0.74049
-22.4531845716 0.799608
-21.9542303025 0.855534
-21.4552757888 0.880937
-20.9563210305 0.830764
-20.4573660277 0.680802
-19.9584107802 0.567264
-19.4594552881 0.511016
-18.9604995513 0.471519
-18.4615435698 0.456151
-17.9625873436 0.435141
-17.4636308727 0.42297
-16.964674157 0.434579
-16.4657171965 0.441746
-15.9667599912 0.435559
-15.467802541 0.417434
-14.9688448459 0.413614
-14.469886906 0.406973
-13.9709287211 0.414118
-13.4719702913 0.469548
-12.9730116164 0.589436
-12.4740526966 0.725894
-11.9750935318 0.826898
-11.4761341219 0.892706
-10.9771744669 0.882688
-10.4782145668 0.810782
-9.97925442161 0.699297
-9.48029403123 0.602944
-8.98133339567 0.486608
-8.48237251491 0.429136
-7.9834113889 0.399815
-7.48445001764 0.348359
-6.98548840109 0.258458
-6.48652653923 0.206027
-5.98756443203 0.211413
-5.48860207947 0.232182
-4.98963948152 0.21276
-4.49067663816 0.158859
-3.99171354935 0.0925203
-3.49275021508 0.0328232
-2.99378663532 0.0123318
-2.49482281004 0
-1.99585873922 0.0290333
-1.49689442283 0.0778927
-0.99792986085 0.137903
-0.498965053247 0.229974
0 0.336821
0.498965298918 0.357971
0.997930843532 0.410842
1.49689663387 0.458975
1.99586266995 0.547867
2.49482895181 0.592841
2.99379547946 0.59817
3.49276225294 0.584664
3.99172927227 0.561883
4.49069653747 0.546078
4.98966404857 0.577333
5.4886318056 0.614604
5.98759980858 0.6159
6.48656805754 0.611795
6.9855365525 0.643355
7.48450529349 0.70225
7.98347428053 0.761422
8.48244351365 0.793062
8.98141299288 0.770119
9.48038271824 0.71458
9.97935268975 0.668689
10.4783229074 0.645377
10.9772933713 0.634064
11.4762640815 0.63289
11.9752350379 0.6543
12.4742062405 0.719628
12.9731776895 0.757552
13.4721493848 0.784081
13.9711213265 0.799439
14.4700935146 0.850597
14.969065949 0.906417
15.4680386299 0.939234
15.9670115573 0.90249
16.4659847311 0.883137
16.9649581515 0.892398
17.4639318184 0.924699
17.9629057318 0.954941
18.4618798919 0.979091
18.9608542986 0.972055
19.4598289519 0.96202
19.9588038518 0.962055
20.4577789985 0.974184
20.9567543918 0.98346
21.4557300319 0.960449
21.9547059188 0.942435
22.4536820525 0.948756
22.9526584329 0.992863
23.4516350603 1.04901
23.9506119344 1.09842
24.4495890555 1.13201
24.9485664235 1.11452
