-24.9319740857 1.1822
-24.4333412607 1.2623
-23.9347081645 1.32111
-23.4360747971 1.30423
-22.9374411585 1.20629
-22.4388072486 1.09543
-21.9401730674 0.986598
-21.4415386149 0.818838
-20.942903891 0.673522
-20.4442688957 0.552499
-19.945633629 0.485016
-19.4469980908 0.427833
-18.9483622811 0.35546
-18.4497261999 0.279603
-17.9510898471 0.211691
-17.4524532227 0.157785
-16.9538163267 0.121478
-16.4551791591 0.0789054
-15.9565417197 0.0393589
-15.4579040086 0
-14.9592660257 0.00788135
-14.460627771 0.0648418
-13.9619892444 0.215461
-13.4633504461 0.34579
-12.9647113758 0.37234
-12.4660720335 0.32633
-11.9674324193 0.276174
-11.4687925331 0.259846
-10.9701523749 0.258571
-10.4715119445 0.270152
-9.97287124211 0.289014
-9.47423026755 0.319032
-8.97558902082 0.300597
-8.47694750188 0.262018
-7.9783057107 0.238746
-7.47966364725 0.211857
-6.98102131149 0.199125
-6.48237870339 0.178346
-5.98373582293 0.157039
-5.48509267005 0.136248
-4.98644924473 0.119755
-4.48780554694 0.116619
-3.98916157665 0.117824
-3.49051733381 0.131183
-2.9918728184 0.156624
-2.49322803038 0.187796
-1.99458296972 0.219625
-1.49593763638 0.239331
-0.997292030342 0.251304
-0.498646151558 0.280158
0 0.296765
0.498646424366 0.295818
0.997293121574 0.279151
1.49594009166 0.252893
1.99458733465 0.234329
2.49323485058 0.235093
2.99188263949 0.230068
3.49053070141 0.227752
3.98917903637 0.234993
4.4878276444 0.237312
4.98647652555 0.263015
5.48512567983 0.29426
5.98377510729 0.333406
6.48242480796 0.375885
6.98107478187 0.442541
7.47972502906 0.514075
7.97837554956 0.577382
8.4770263434 0.626473
8.97567741061 0.650425
9.47432875123 0.691504
9.9729803653 0.722385
10.4716322528 0.736814
10.9702844139 0.749337
11.4689368485 0.786532
11.9675895566 0.818964
12.4662425384 0.847153
12.9648957938 0.884219
13.4635493229 0.921484
13.9622031257 0.934774
14.4608572023 0.950304
14.9595115526 1.02151
15.4581661767 1.04989
15.9568210747 1.10482
16.4554762465 1.07693
16.9541316923 1.0417
17.4527874119 0.987252
17.9514434056 0.968842
18.4500996733 0.957901
18.948756215 0.93234
19.4474130308 0.932632
19.9460701207 0.972201
20.4447274847 0.993899
20.9433851229 0.956296
21.4420430353 0.945725
21.940701222 0.940973
22.4393596829 0.987898
22.9380184181 1.00802
23.4366774277 1.00509
23.9353367116 1.02216
24.4339962699 1.04382
24.9326561027 1.07934
