-24.9299118087 0.775832
-24.4313202458 0.834483
-23.932728411 0.915003
-23.4341363043 0.965548
-22.9355439258 0.975967
-22.4369512753 0.966118
-21.9383583529 0.948251
-21.4397651585 0.935459
-20.9411716921 0.877223
-20.4425779536 0.843528
-19.9439839429 0.852192
-19.4453896602 0.834985
-18.9467951053 0.76956
-18.4482002782 0.678936
-17.9496051788 0.601737
-17.4510098072 0.570856
-16.9524141633 0.568445
-16.453818247 0.57132
-15.9552220584 0.593908
-15.4566255973 0.614853
-14.9580288638 0.630774
-14.4594318578 0.630081
-13.9608345793 0.616192
-13.4622370283 0.590979
-12.9636392047 0.549847
-12.4650411084 0.492632
-11.9664427395 0.421638
-11.4678440979 0.346276
-10.9692451836 0.27364
-10.4706459965 0.189254
-9.97204653666 0.11742
-9.47344680398 0.0815053
-8.97484679843 0.0693789
-8.47624651998 0.0701843
-7.97764596861 0.075534
-7.47904514427 0.0758404
-6.98044404693 0.0665521
-6.48184267656 0.0613353
-5.98324103312 0.0556126
-5.48463911658 0.0470631
-4.98603692691 0.0420534
-4.48743446406 0.0339943
-3.988831728 0.0267833
-3.4902287187 0.0238656
-2.99162543613 0.0219918
-2.49302188025 0.0214144
-1.99441805103 0.0199198
-1.49581394842 0.017281
-0.997209572408 0.0163972
-0.498604922945 0.01337
0 0.00439577
0.498605196461 0
0.997210666473 0.0165598
1.49581641007 0.0427132
1.99442242729 0.068128
2.49302871816 0.0886806
2.99163528272 0.116731
3.490242121 0.149833
3.98884923304 0.185081
4.48745661887 0.202192
4.98606427852 0.258322
5.48467221204 0.279216
5.98328041945 0.262887
6.48188890079 0.2623
6.98049765609 0.276782
7.47910668539 0.281375
7.97771598873 0.300632
8.47632556612 0.324505
8.97493541762 0.376276
9.47354554326 0.424923
9.97215594306 0.45584
10.4707666171 0.478789
10.9693775653 0.497595
11.4679887878 0.520899
11.9666002847 0.559432
12.4652120558 0.616315
12.9638241014 0.67602
13.4624364213 0.733453
13.9610490157 0.751609
14.4596618846 0.755188
14.958275028 0.761287
15.4568884459 0.766129
15.9555021384 0.767728
16.4541161055 0.751975
16.9527303473 0.753496
17.4513448638 0.75537
17.9499596549 0.753437
18.4485747209 0.75521
18.9471900616 0.758899
19.4458056771 0.759645
19.9444215675 0.763118
20.4430377328 0.785269
20.941654173 0.8061
21.4402708881 0.821808
21.9388878782 0.826513
22.4375051434 0.825034
22.9361226836 0.826535
23.434740499 0.819979
23.9333585894 0.808948
24.431976955 0.797151
24.9305955958 0.784763
