-25.0024612506 1.44659
-24.5024150659 1.42514
-24.0023687572 1.38217
-23.5023223243 1.37186
-23.0022757673 1.34945
-22.5022290862 1.1912
-22.002182281 1.07104
-21.5021353517 1.04632
-21.0020882983 1.1125
-20.5020411208 1.16696
-20.0019938192 1.19213
-19.5019463934 1.22024
-19.0018988436 1.27019
-18.5018511696 1.22408
-18.0018033716 1.15059
-17.5017554494 1.15898
-17.0017074032 1.22826
-16.5016592329 1.30777
-16.0016109384 1.39731
-15.5015625199 1.46809
-15.0015139772 1.52557
-14.5014653105 1.54137
-14.0014165197 1.49325
-13.5013676048 1.45126
-13.0013185658 1.38031
-12.5012694027 1.30196
-12.0012201155 1.21617
-11.5011707043 1.1261
-11.0011211689 1.03693
-10.5010715095 0.930103
-10.001021726 0.819333
-9.50097181835 0.731618
-9.00092178667 0.650024
-8.50087163091 0.536796
-8.00082135108 0.419662
-7.50077094716 0.349269
-7.00072041917 0.240117
-6.5006697671 0.14847
-6.00061899096 0.0886967
-5.50056809075 0.0389984
-5.00051706647 0.017812
-4.50046591812 0.0104011
-4.0004146457 0.00325177
-3.50036324921 0
-3.00031172865 0.00266207
-2.50026008403 0.0120875
-2.00020831535 0.0188269
-1.5001564226 0.0309933
-1.00010440579 0.0796467
-0.500052264927 0.134558
0 0.173911
0.500052388984 0.195538
1.00010490202 0.219474
1.50015753912 0.23679
2.00021030027 0.219106
2.50026318547 0.265174
3.00031619473 0.312214
3.50036932803 0.388188
4.00042258538 0.518077
4.50047596678 0.587424
5.00052947223 0.629596
5.50058310172 0.6238
6.00063685525 0.590945
6.50069073283 0.564111
7.00074473445 0.585076
7.5007988601 0.601236
8.0008531098 0.622863
8.50090748353 0.633046
9.0009619813 0.637378
9.50101660311 0.661311
10.0010713489 0.708503
10.5011262188 0.740872
11.0011812127 0.726986
11.5012363306 0.655259
12.0012915726 0.658858
12.5013469386 0.685828
13.0014024286 0.706706
13.5014580426 0.750473
14.0015137807 0.782109
14.5015696428 0.830828
15.0016256289 0.914441
15.501681739 0.969378
16.0017379731 0.957806
16.5017943312 0.959907
17.0018508134 0.95458
17.5019074196 0.918794
18.0019641498 0.88379
18.502021004 0.840176
19.0020779822 0.777691
19.5021350844 0.729985
20.0021923106 0.700025
20.5022496609 0.658843
21.0023071351 0.588183
21.5023647333 0.520963
22.0024224556 0.488591
22.5024803018 0.499662
23.002538272 0.539741
23.5025963663 0.569789
24.0026545845 0.607758
24.5027129267 0.611885
25.0027713929 0.57702
