-24.9479398037 0.502483
-24.448987004 0.607079
-23.9500339599 0.66746
-23.4510806715 0.718696
-22.9521271387 0.745893
-22.4531733614 0.760643
-21.9542193398 0.785994
-21.4552650736 0.790031
-20.956310563 0.786801
-20.4573558079 0.789101
-19.9584008082 0.786124
-19.4594455639 0.776078
-18.9604900751 0.760544
-18.4615343416 0.735814
-17.9625783635 0.715662
-17.4636221407 0.709874
-16.9646656733 0.692882
-16.465708961 0.649861
-15.9667520041 0.540004
-15.4677948024 0.424361
-14.9688373558 0.340521
-14.4698796645 0.334008
-13.9709217283 0.483454
-13.4719635472 0.659651
-12.9730051212 0.826816
-12.4740464503 0.86623
-11.9750875344 0.844472
-11.4761283735 0.799429
-10.9771689677 0.721441
-10.4782093168 0.637321
-9.97924942083 0.561369
-9.48028927979 0.51499
-8.98132889365 0.475092
-8.48236826236 0.437238
-7.98340738592 0.397546
-7.48444626429 0.414469
-6.98548489745 0.451716
-6.48652328537 0.444085
-5.98756142803 0.40481
-5.48859932539 0.343081
-4.98963697744 0.262728
-4.49067438416 0.183391
-3.9917115455 0.118028
-3.49274846145 0.0733315
-2.99378513199 0.0426031
-2.49482155708 0.0135951
-1.99585773671 0
-1.49689367083 0.0135633
-0.997929359445 0.0309123
-0.498964802508 0.0477705
0 0.0729312
0.498965048105 0.087685
0.997930341831 0.110972
1.49689588121 0.169637
1.99586166625 0.185128
2.494827697 0.20121
2.99379397347 0.219112
3.4927604957 0.239922
3.9917272637 0.274955
4.49069427749 0.339988
4.98966153712 0.403713
5.4886290426 0.470008
5.98759679396 0.509043
6.48656479122 0.537673
6.98553303441 0.50837
7.48450152355 0.461542
7.98347025867 0.424192
8.4824392398 0.404307
8.98140846696 0.411007
9.48037794018 0.431455
9.97934765948 0.448322
10.4783176249 0.463756
10.9772878364 0.489938
11.4762582941 0.52974
11.975228998 0.578984
12.4741999481 0.642853
12.9731711444 0.70996
13.472142587 0.786707
13.9711142759 0.855546
14.470086211 0.850757
14.9690583926 0.739571
15.4680308204 0.780701
15.9670034947 0.787467
16.4659764154 0.787148
16.9649495825 0.763102
17.4639229961 0.765459
17.9628966562 0.767832
18.4618705627 0.755671
18.9608447159 0.711608
19.4598191155 0.685316
19.9587937618 0.679162
20.4577686547 0.700268
20.9567437943 0.736209
21.4557191805 0.768761
21.9546948133 0.812769
22.453670693 0.812169
22.9526468193 0.770276
23.4516231924 0.716183
23.9505998123 0.705223
24.4495766791 0.750157
24.9485537926 0.815114
