-24.9428384145 0.496011
-24.4439878445 0.496296
-23.9451370219 0.498139
-23.4462859468 0.495838
-22.9474346192 0.493773
-22.4485830388 0.501477
-21.9497312059 0.534999
-21.4508791202 0.565055
-20.9520267819 0.61283
-20.4531741908 0.698378
-19.9543213469 0.800544
-19.4554682502 0.911294
-18.9566149008 0.992454
-18.4577612984 1.00261
-17.9589074432 1.01758
-17.4600533351 1.01455
-16.9611989741 0.988356
-16.46234436 0.915232
-15.963489493 0.845852
-15.464634373 0.789741
-14.9657789999 0.750067
-14.4669233738 0.685763
-13.9680674945 0.646328
-13.4692113621 0.645747
-12.9703549766 0.705613
-12.4714983378 0.738592
-11.9726414459 0.751189
-11.4737843007 0.705491
-10.9749269022 0.681481
-10.4760692504 0.663766
-9.97721134529 0.675118
-9.47835318681 0.666343
-8.97949477495 0.618997
-8.48063610967 0.478162
-7.98177719095 0.308671
-7.48291801875 0.175489
-6.98405859306 0.0810049
-6.48519891383 0.02921
-5.98633898105 0.0246365
-5.48747879468 0.0201775
-4.9886183547 0.0140815
-4.48975766108 0.0101221
-3.99089671379 0.0100794
-3.49203551281 0.0055511
-2.99317405809 0.00236869
-2.49431234963 0
-1.99545038738 0.00371085
-1.49658817132 0.0269784
-0.997725701421 0.0597143
-0.498862977658 0.136799
0 0.240378
0.498863231581 0.393965
0.997726717112 0.480586
1.49659045662 0.47496
1.99545445014 0.356671
2.49431869769 0.208897
2.9931831993 0.133973
3.49204795501 0.126127
3.99091296483 0.131755
4.4897782288 0.16048
4.98864374695 0.255449
5.4875095193 0.397716
5.98637554588 0.531493
6.48524182672 0.633423
6.98410836185 0.676017
7.48297515129 0.608776
7.98184219507 0.453051
8.48070949323 0.380389
8.97957704579 0.354367
9.47844485277 0.333696
9.97731291421 0.320296
10.4761812301 0.328686
10.9750498006 0.350433
11.4739186255 0.403883
11.9727877051 0.512883
12.4716570392 0.620503
12.970526628 0.735434
13.4693964714 0.782454
13.9682665695 0.770218
14.4671369222 0.774483
14.9660075298 0.834055
15.4648783921 1.00858
15.9637495091 1.16474
16.462620881 1.28604
16.9614925078 1.36249
17.4603643894 1.32225
17.9592365259 1.239
18.4581089174 1.09441
18.9569815638 0.991991
19.4558544652 0.914193
19.9547276216 0.867941
20.453601033 0.766772
20.9524746996 0.631396
21.4513486212 0.55826
21.9502227979 0.514083
22.4490972298 0.494573
22.9479719169 0.490411
23.4468468592 0.476416
23.9457220567 0.454975
24.4445975094 0.455395
24.9434732175 0.459184
