-24.9343424485 0.509687
-24.4356620976 0.510218
-23.936981482 0.525624
-23.4383006016 0.541045
-22.9396194565 0.560754
-22.4409380466 0.579652
-21.9422563718 0.597181
-21.4435744322 0.604223
-20.9448922276 0.606258
-20.4462097582 0.598941
-19.9475270237 0.620848
-19.4488440243 0.653882
-18.9501607598 0.698328
-18.4514772303 0.738687
-17.9527934356 0.781191
-17.4541093759 0.823761
-16.9554250509 0.841063
-16.4567404608 0.863922
-15.9580556055 0.863852
-15.4593704849 0.85951
-14.960685099 0.879635
-14.4619994477 0.903098
-13.9633135311 0.921226
-13.4646273492 0.928107
-12.9659409018 0.929381
-12.4672541889 0.927539
-11.9685672106 0.937561
-11.4698799667 0.963267
-10.9711924573 0.988436
-10.4725046823 1.01876
-9.97381664168 1.01356
-9.47512833542 1.00138
-8.97643976347 0.953602
-8.47775092582 0.900101
-7.97906182241 0.88828
-7.48037245322 0.863742
-6.98168281823 0.82311
-6.48299291739 0.731891
-5.98430275067 0.568044
-5.48561231805 0.394129
-4.98692161949 0.195778
-4.48823065495 0.0660158
-3.98953942441 0.0167123
-3.49084792783 0
-2.99215616518 0.0166011
-2.49346413642 0.062884
-1.99477184154 0.15444
-1.49607928048 0.276559
-0.997386453232 0.378043
-0.498693359747 0.452677
0 0.508692
0.498693626043 0.547459
0.997387518415 0.54843
1.49608167715 0.532742
1.99477610227 0.531051
2.49347079382 0.549202
2.99216575183 0.574722
3.49086097632 0.588501
3.98955646734 0.543862
4.48825222491 0.463157
4.98694824907 0.396801
5.48564453984 0.350069
5.98434109727 0.329473
6.48303792138 0.323873
6.9817350122 0.321469
7.48043236977 0.323127
7.97912999412 0.331801
8.47782788528 0.333534
8.97652604328 0.350966
9.47522446816 0.344911
9.97392315995 0.349741
10.4726221187 0.382386
10.9713213444 0.435086
11.4700208371 0.504133
11.9687205968 0.529157
12.4674206236 0.557304
12.9661209175 0.559864
13.4648214786 0.530896
13.9635223068 0.460688
14.4622234022 0.392032
14.9609247648 0.331857
15.4596263947 0.322857
15.9583282919 0.320074
16.4570304564 0.324502
16.9557328883 0.334027
17.4544355875 0.36725
17.9531385542 0.397974
18.4518417883 0.410654
18.9505452899 0.438434
19.4492490591 0.480889
19.9479530957 0.524981
20.4466574 0.562864
20.9453619719 0.587116
21.4440668114 0.602791
21.9427719186 0.633702
22.4414772935 0.671335
22.9401829361 0.684137
23.4388888466 0.692798
23.9375950248 0.733021
24.4363014708 0.782689
24.9350081848 0.814262
