-24.9366833537 0.690347
-24.4379561178 0.754113
-23.9392286199 0.782155
-23.44050086 0.79613
-22.941772838 0.798367
-22.443044554 0.787549
-21.9443160078 0.803646
-21.4455871995 0.823601
-20.946858129 0.838559
-20.4481287962 0.856701
-19.9493992013 0.870776
-19.450669344 0.877232
-18.9519392244 0.876118
-18.4532088425 0.882293
-17.9544781982 0.892958
-17.4557472916 0.909248
-16.9570161224 0.929284
-16.4582846909 0.942305
-15.9595529968 0.963272
-15.4608210402 0.96474
-14.962088821 0.97326
-14.4633563392 0.979202
-13.9646235948 1.00243
-13.4658905878 1.03952
-12.9671573181 1.09378
-12.4684237856 1.13401
-11.9696899904 1.14005
-11.4709559324 1.15737
-10.9722216117 1.16505
-10.473487028 1.15278
-9.97475218153 1.15511
-9.47601707212 1.17349
-8.97728169978 1.11993
-8.47854606447 1.08377
-7.97981016616 1.00268
-7.48107400483 0.867921
-6.98233758043 0.716915
-6.48360089294 0.536519
-5.98486394232 0.361626
-5.48612672856 0.178085
-4.9873892516 0.0541441
-4.48865151143 0.0201311
-3.98991350801 0.0142883
-3.49117524132 0.0053743
-2.99243671131 0
-2.49369791796 0.00629912
-1.99495886124 0.0109125
-1.49621954111 0.0144385
-0.99747995755 0.0139616
-0.498740110524 0.011087
0 0.0113727
0.498740374052 0.0162744
0.997481011663 0.0324471
1.49622191287 0.0629041
1.99496307769 0.111123
2.49370450616 0.17248
2.99244619833 0.235441
3.4911881542 0.291367
3.98993037382 0.331719
4.48867285722 0.351131
4.98741560442 0.332813
5.48615861547 0.303456
5.98490189038 0.285753
6.4836454292 0.304896
6.98238923195 0.319453
7.48113329866 0.331922
7.97987762937 0.35858
8.4786222241 0.404859
8.97736708288 0.456702
9.47611220576 0.504209
9.97485759275 0.546936
10.4736032439 0.577056
10.9723491592 0.60639
11.4710953388 0.630867
11.9698417825 0.631264
12.4685884906 0.668823
12.9673354629 0.676876
13.4660826996 0.699878
13.9648302007 0.717221
14.4635779661 0.730234
14.962325996 0.750715
15.4610742903 0.764628
15.9598228492 0.763682
16.4585716725 0.761883
16.9573207604 0.766507
17.4560701129 0.779187
17.95481973 0.786242
18.4535696117 0.776201
18.9523197582 0.782912
19.4510701693 0.788636
19.9498208451 0.761982
20.4485717858 0.738214
20.9473229912 0.721432
21.4460744614 0.701943
21.9448261965 0.652826
22.4435781966 0.55893
22.9423304615 0.534543
23.4410829914 0.522108
23.9398357862 0.495969
24.4385888461 0.459954
24.937342171 0.462956
