-24.9303657157 0.284801
-24.4317650398 0.276563
-23.9331640934 0.267788
-23.4345628767 0.263898
-22.9359613895 0.264715
-22.4373596317 0.271807
-21.9387576034 0.276528
-21.4401553046 0.27906
-20.9415527351 0.291108
-20.442949895 0.318649
-19.9443467842 0.340977
-19.4457434027 0.373037
-18.9471397504 0.399951
-18.4485358274 0.43683
-17.9499316335 0.523411
-17.4513271688 0.604392
-16.9527224332 0.676165
-16.4541174267 0.745452
-15.9555121492 0.778414
-15.4569066008 0.782863
-14.9583007813 0.77104
-14.4596946907 0.807831
-13.9610883291 0.890337
-13.4624816963 0.926504
-12.9638747924 0.948707
-12.4652676173 0.928539
-11.9666601709 0.904312
-11.4680524533 0.820448
-10.9694444644 0.645438
-10.4708362041 0.466655
-9.9722276725 0.312783
-9.47361886948 0.17703
-8.97500979502 0.0836348
-8.4764004491 0.0311605
-7.97779083166 0.00718521
-7.47918094269 0.00571378
-6.98057078214 0.00585091
-6.48196034998 0.00554714
-5.98334964618 0.00241485
-5.48473867071 0
-4.98612742352 0.00231162
-4.48751590459 0.00818047
-3.98890411388 0.0166884
-3.49029205135 0.0220291
-2.99167971698 0.0312009
-2.49306711072 0.0463303
-1.99445423255 0.0606543
-1.49584108242 0.077573
-0.997227660312 0.0879893
-0.498613966183 0.108828
0 0.141693
0.49861423827 0.201026
0.997228748663 0.318096
1.49584353121 0.452103
1.99445858595 0.606121
2.49307391292 0.655495
2.99168951214 0.648539
3.49030538365 0.548146
3.9889215275 0.438772
4.4875379437 0.334113
4.9861546323 0.246059
5.48477159333 0.196545
5.98338882682 0.174938
6.48200633282 0.161746
6.98062411134 0.160504
7.47924216243 0.175675
7.97786048612 0.192495
8.47647908244 0.201279
8.97509795144 0.210865
9.47371709313 0.213085
9.97233650756 0.20243
10.4709561948 0.203407
10.9695761548 0.200718
11.4681963876 0.199122
11.9668168933 0.200857
12.465437672 0.201736
12.9640587235 0.205985
13.4626800481 0.217508
13.9613016456 0.239516
14.4599235162 0.262948
14.9585456599 0.296841
15.4571680767 0.336268
15.9557907666 0.384476
16.4544137297 0.441209
16.953036966 0.49817
17.4516604756 0.547838
17.9502842585 0.600519
18.4489083146 0.644031
18.9475326441 0.661441
19.446157247 0.647867
19.9447821234 0.667401
20.4434072731 0.673667
20.9420326964 0.709299
21.4406583931 0.732993
21.9392843635 0.758482
22.4379106074 0.779341
22.9365371249 0.796426
23.4351639161 0.805694
23.933790981 0.812232
24.4324183196 0.81344
24.9310459319 0.805423
