-24.9319974917 0.711366
-24.4333642023 0.759953
-23.9347306415 0.813554
-23.4360968095 0.871113
-22.937462706 0.907474
-22.4388283311 0.944778
-21.9401936848 0.93845
-21.441558767 0.90373
-20.9429235777 0.879063
-20.4442881168 0.838628
-19.9456523843 0.720191
-19.4470163803 0.528607
-18.9483801045 0.439566
-18.4497435571 0.42725
-17.951106738 0.476432
-17.4524696471 0.534767
-16.9538322844 0.581301
-16.4551946499 0.612322
-15.9565567435 0.653379
-15.4579185653 0.675837
-14.9592801151 0.702092
-14.460641393 0.692318
-13.9620023989 0.654369
-13.4633631328 0.653148
-12.9647235946 0.665695
-12.4660837843 0.686459
-11.9674437019 0.706274
-11.4688033473 0.730451
-10.9701627206 0.753007
-10.4715218216 0.753377
-9.97288065037 0.731125
-9.47423920685 0.66319
-8.975597491 0.5915
-8.4769555028 0.51906
-7.9783132422 0.444769
-7.47967070918 0.371139
-6.98102790369 0.326269
-6.48238482572 0.318125
-5.98374147522 0.312187
-5.48509785216 0.315865
-4.9864539565 0.345923
-4.48780978822 0.37708
-3.98916534728 0.399245
-3.49052063365 0.392618
-2.99187564729 0.41034
-2.49323038817 0.375305
-1.99458485626 0.287197
-1.49593905152 0.257704
-0.997292973918 0.241408
-0.498646623423 0.234584
0 0.237171
0.498646896383 0.256965
0.997294065761 0.286295
1.49594150817 0.309717
1.99458922363 0.325241
2.49323721219 0.339534
2.99188547388 0.358195
3.49053400873 0.386312
3.98918281678 0.421074
4.48783189805 0.452437
4.98648125258 0.473059
5.48513088041 0.476469
5.98378078157 0.500258
6.48243095609 0.536272
6.981081404 0.562961
7.47973212534 0.588125
7.97838312015 0.60205
8.47703438844 0.635489
8.97568593027 0.660637
9.47433774565 0.700827
9.97298983463 0.716657
10.4716421972 0.653318
10.9702948335 0.57108
11.4689477435 0.493899
11.9676009272 0.451959
12.4662543846 0.450062
12.9649081159 0.455148
13.4635621209 0.431795
13.9622163999 0.379456
14.4608709527 0.360755
14.9595257795 0.350683
15.4581808802 0.266333
15.9568362549 0.158113
16.4554919036 0.0528973
16.9541478264 0
17.4528040233 0.0603076
17.9514604943 0.129473
18.4501172395 0.164378
18.9487742589 0.164823
19.4474315525 0.158681
19.9460891203 0.163394
20.4447469625 0.183133
20.9434050789 0.191869
21.4420634698 0.184011
21.940722135 0.1654
22.4393810746 0.151622
22.9380402887 0.129339
23.4366997773 0.117801
23.9353595404 0.153483
24.4340195781 0.195494
24.9326798904 0.238261
