-24.9343787494 0.618733
-24.4356976783 0.549426
-23.9370163422 0.4594
-23.4383347411 0.410861
-22.9396528751 0.393263
-22.4409707439 0.381683
-21.9422883477 0.388279
-21.4436056865 0.379514
-20.94492276 0.414138
-20.4462395684 0.485932
-19.9475561116 0.619719
-19.4488723896 0.782246
-18.9501884023 0.912925
-18.4515041496 0.966939
-17.9528196317 0.984418
-17.4541348484 0.985517
-16.9554497997 0.942199
-16.4567644855 0.916682
-15.9580789059 0.908011
-15.4593930608 0.927159
-14.9607069502 0.956693
-14.462020574 0.963158
-13.9633339322 0.916465
-13.4646470248 0.843222
-12.9659598517 0.700486
-12.467272413 0.55895
-11.9685847085 0.510776
-11.4698967383 0.504203
-10.9712085023 0.526429
-10.4725200004 0.543556
-9.97383123271 0.572175
-9.47514219913 0.596726
-8.97645289964 0.651324
-8.47776333419 0.622976
-7.97907350276 0.554204
-7.48038340532 0.446499
-6.98169304183 0.356769
-6.48300241226 0.319846
-5.98431151658 0.310175
-5.48562035476 0.271936
-4.98692892676 0.185164
-4.48823723256 0.138351
-3.98954527211 0.136336
-3.49085304539 0.137433
-2.99216055236 0.132293
-2.493467793 0.0985216
-1.99477476727 0.0536148
-1.49608147514 0.028587
-0.997387916568 0.0188216
-0.498694091533 0.0154967
0 0.0160372
0.498694358064 0.0151877
0.997388982691 0.0123506
1.49608387391 0.00568054
1.99477903176 0
2.49347445628 0.00121748
2.99217014748 0.0223085
3.4908661054 0.0593789
3.98956233009 0.135481
4.48825882156 0.254695
4.98695557985 0.398025
5.485652605 0.53834
5.98434989703 0.648963
6.48304745598 0.749394
6.98174528188 0.851373
7.48044337476 0.944914
7.97914173465 0.982109
8.47784036159 0.98306
8.97653925561 0.990267
9.47523841673 0.994727
9.97393784501 0.986506
10.4726375405 0.983412
10.9713375031 0.95555
11.470037733 0.894083
11.9687382302 0.801635
12.4674389946 0.709584
12.9661400264 0.648891
13.4648413256 0.614926
13.9635428922 0.599625
14.4622447261 0.601104
14.9609468276 0.618946
15.4596491966 0.639605
15.958351833 0.677907
16.4570547371 0.753448
16.9557579087 0.852427
17.454461348 0.922308
17.9531650549 0.974561
18.4518690295 1.0131
18.9505732718 1.02609
19.4492777819 0.986219
19.9479825597 0.970903
20.4466876054 0.964459
20.9453929189 0.977178
21.4440985003 0.982036
21.9428043496 0.922457
22.4415104669 0.871086
22.9402168521 0.860324
23.4389235054 0.885532
23.9376304266 0.90971
24.436337616 0.917082
24.9350450734 0.925171
