-24.9319941585 0.726745
-24.4333609352 0.688066
-23.9347274407 0.670731
-23.4360936748 0.619745
-22.9374596375 0.54401
-22.4388253288 0.446843
-21.9401907488 0.36976
-21.4415558972 0.334263
-20.9429207742 0.308852
-20.4442853796 0.252779
-19.9456497135 0.209372
-19.4470137757 0.1872
-18.9483775664 0.163342
-18.4497410853 0.1333
-17.9511043326 0.122121
-17.4524673081 0.095127
-16.9538300119 0.116722
-16.4551924439 0.187329
-15.956554604 0.272395
-15.4579164923 0.31405
-14.9592781087 0.334839
-14.4606394531 0.342081
-13.9620005256 0.329915
-13.4633613261 0.321169
-12.9647218545 0.320969
-12.4660821109 0.324274
-11.9674420952 0.332674
-11.4688018073 0.33832
-10.9701612473 0.335618
-10.4715204151 0.345351
-9.97287931058 0.361769
-9.47423793384 0.367713
-8.9755962848 0.370095
-8.47695436342 0.365824
-7.97831216967 0.360866
-7.47966970351 0.363285
-6.98102696492 0.371412
-6.48238395386 0.403597
-5.9837406703 0.407692
-5.48509711419 0.373252
-4.98645328552 0.239577
-4.48780918424 0.14429
-3.98916481032 0.117364
-3.49052016373 0.113669
-2.99187524444 0.0940521
-2.49323005241 0.0624324
-1.9945845876 0.04255
-1.49593885 0.00909117
-0.997292839547 0
-0.498646556226 0.0301579
0 0.0148602
0.498646829165 0.0220649
0.997293931304 0.0750603
1.49594130645 0.140229
1.99458895463 0.206801
2.49323687589 0.257459
2.99188507025 0.29087
3.49053353775 0.304255
3.98918227843 0.299559
4.48783129231 0.286342
4.98648057943 0.291566
5.48513013982 0.342251
5.98377997352 0.432048
6.48243008056 0.510527
6.98108046097 0.596225
7.47973111479 0.630956
7.97838204205 0.733035
8.47703324278 0.826939
8.97568471702 0.862305
9.47433646479 0.881544
9.97298848614 0.898772
10.4716407811 0.908369
10.9702933497 0.898344
11.468946192 0.912595
11.9675993079 0.889406
12.4662526977 0.844868
12.9649063611 0.84299
13.4635602984 0.846246
13.9622145096 0.817249
14.4608689946 0.781428
14.9595237535 0.685311
15.4581787863 0.614047
15.9568340931 0.561138
16.455489674 0.519827
16.9541455288 0.465748
17.4528016578 0.440434
17.9514580608 0.421927
18.450114738 0.41374
18.9487716893 0.395108
19.4474289149 0.34738
19.9460864147 0.303291
20.4447441887 0.253613
20.9434022371 0.202384
21.4420605598 0.148821
21.9407191568 0.10821
22.4393780283 0.0854292
22.9380371742 0.100718
23.4366965946 0.124509
23.9353562895 0.189987
24.4340162589 0.234066
24.9326765029 0.274019
