-24.9388738326 0.278518
-24.4401027159 0.275297
-23.9413313401 0.257762
-23.4425597052 0.23482
-22.9437878111 0.228569
-22.4450156578 0.228232
-21.9462432453 0.232893
-21.4474705735 0.238586
-20.9486976424 0.245196
-20.449924452 0.259035
-19.9511510023 0.280493
-19.4523772932 0.292603
-18.9536033246 0.295877
-18.4548290967 0.312236
-17.9560546093 0.327201
-17.4572798623 0.353186
-16.9585048559 0.382496
-16.4597295898 0.409221
-15.9609540642 0.428087
-15.462178279 0.450002
-14.9634022341 0.466182
-14.4646259295 0.471001
-13.9658493652 0.453528
-13.4670725412 0.434527
-12.9682954574 0.429938
-12.4695181138 0.408526
-11.9707405104 0.383263
-11.4719626471 0.343014
-10.9731845239 0.294618
-10.4744061408 0.247868
-9.97562749777 0.193071
-9.47684859473 0.129574
-8.97806943167 0.0746912
-8.47929000857 0.0393852
-7.9805103254 0.0150565
-7.48173038212 0.00328099
-6.98295017871 0
-6.48416971513 0.00528509
-5.98538899136 0.0185635
-5.48660800737 0.0299023
-4.98782676311 0.0338142
-4.48904525858 0.036004
-3.99026349373 0.0390238
-3.49148146854 0.0387242
-2.99269918297 0.0351351
-2.493916637 0.0577213
-1.99513383059 0.0985406
-1.49635076371 0.137471
-0.997567436345 0.149124
-0.49878384845 0.145699
0 0.120084
0.498784109035 0.144505
0.997568478686 0.174651
1.49635310898 0.182568
1.99513799995 0.170763
2.49392315163 0.140659
2.99270856404 0.148389
3.49149423722 0.141259
3.9902801712 0.140049
4.48906636599 0.137046
4.98785282165 0.192538
5.48663953819 0.25164
5.98542651565 0.251862
6.48421375405 0.270847
6.98300125342 0.257248
7.4817890138 0.25487
7.98057703522 0.276497
8.4793653177 0.324593
8.97815386128 0.367171
9.47694266598 0.390454
9.97573173184 0.405693
10.4745210589 0.421434
10.9733106471 0.429668
11.4721004966 0.452704
11.9708906074 0.477284
12.4696809795 0.494047
12.9684716129 0.534311
13.4672625077 0.596333
13.9660536639 0.65324
14.4648450815 0.755829
14.9636367605 0.892557
15.4624287011 0.975014
15.9612209031 1.01127
16.4600133667 1.04693
16.9588060919 1.05232
17.4575990786 1.03662
17.956392327 1.05157
18.4551858371 1.07876
18.9539796089 1.10507
19.4527736423 1.12851
19.9515679376 1.15633
20.4503624946 1.15861
20.9491573134 1.15759
21.4479523941 1.15505
21.9467477366 1.17532
22.445543341 1.19725
22.9443392074 1.21078
23.4431353357 1.22377
23.9419317261 1.24004
24.4407283784 1.22416
24.9395252928 1.21019
