-24.9420200915 0.135525
-24.4431859006 0.14736
-23.9443514567 0.143545
-23.4455167597 0.115473
-22.9466818096 0.113434
-22.4478466063 0.172999
-21.9490111499 0.228525
-21.4501754403 0.307191
-20.9513394775 0.375925
-20.4525032614 0.429224
-19.9536667921 0.496298
-19.4548300694 0.538445
-18.9559930934 0.573662
-18.4571558641 0.605591
-17.9583183813 0.620746
-17.4594806451 0.620842
-16.9606426555 0.603019
-16.4618044124 0.561464
-15.9629659158 0.512625
-15.4641271656 0.453517
-14.9652881619 0.399457
-14.4664489046 0.345771
-13.9676093937 0.314564
-13.4687696291 0.315603
-12.9699296108 0.334365
-12.4710893388 0.339243
-11.9722488131 0.31632
-11.4734080336 0.294032
-10.9745670003 0.292581
-10.4757257132 0.242628
-9.97688417227 0.167914
-9.47804237743 0.122048
-8.97920032868 0.103773
-8.48035802599 0.0514496
-7.98151546933 0.0063746
-7.48267265868 0
-6.98382959401 0.0255108
-6.48498627528 0.0369865
-5.98614270247 0.0343178
-5.48729887555 0.0305151
-4.98845479449 0.0316049
-4.48961045926 0.0294017
-3.99076586984 0.022338
-3.4919210262 0.0353668
-2.9930759283 0.0674299
-2.49423057612 0.101177
-1.99538496963 0.166187
-1.4965391088 0.206185
-0.997692993605 0.240148
-0.498846624015 0.264131
0 0.28387
0.498846878467 0.318613
0.997694011415 0.372902
1.49654139887 0.451323
1.99538904087 0.536219
2.49423693743 0.51192
2.99308508859 0.483732
3.49193349437 0.492207
3.9907821548 0.513136
4.48963106991 0.582175
4.98848023973 0.672764
5.48732966429 0.655216
5.98617934361 0.622737
6.48502927773 0.551589
6.98387946667 0.550992
7.48272991046 0.610117
7.98158060913 0.648164
8.4804315627 0.68482
8.97928277122 0.714607
9.47813423469 0.696483
9.97698595316 0.678346
10.4758379267 0.668876
10.9746901552 0.648727
11.4735426388 0.617787
11.9723953775 0.586259
12.4712483714 0.553559
12.9701016204 0.53522
13.4689551246 0.520962
13.9678088841 0.519275
14.4666628987 0.522274
14.9655171687 0.532276
15.464371694 0.541578
15.9632264746 0.549884
16.4620815105 0.535702
16.9609368019 0.527553
17.4597923486 0.540624
17.9586481508 0.570474
18.4575042085 0.562699
18.9563605217 0.545894
19.4552170904 0.53692
19.9540739147 0.523802
20.4529309945 0.496612
20.95178833 0.47658
21.4506459211 0.461276
21.9495037679 0.461497
22.4483618704 0.472255
22.9472202286 0.488925
23.4460788426 0.456721
23.9449377124 0.419784
24.443796838 0.393006
24.9426562194 0.374309
