-24.9303780914 0.687805
-24.43177717 0.697354
-23.9331759781 0.705599
-23.4345745157 0.69239
-22.9359727827 0.686292
-22.4373707791 0.695436
-21.9387685049 0.687253
-21.4401659601 0.657856
-20.9415631445 0.633402
-20.4429600583 0.613252
-19.9443567012 0.582905
-19.4457530734 0.558745
-18.9471491747 0.553458
-18.4485450052 0.52532
-17.9499405648 0.506346
-17.4513358534 0.491591
-16.9527308711 0.484402
-16.4541256177 0.497117
-15.9555200934 0.506581
-15.4569142979 0.509067
-14.9583082314 0.50128
-14.4597018937 0.482717
-13.9610952848 0.454364
-13.4624884047 0.435909
-12.9638812534 0.422634
-12.4652738308 0.386879
-11.9666661369 0.360415
-11.4680581717 0.345983
-10.969449935 0.321017
-10.470841427 0.297135
-9.97223264746 0.318584
-9.47362359647 0.316824
-8.97501427397 0.311725
-8.47640467991 0.296778
-7.97779481426 0.28419
-7.47918467699 0.271746
-6.98057426806 0.248742
-6.48196358744 0.202963
-5.9833526351 0.1494
-5.484741411 0.103225
-4.98612991511 0.0655014
-4.48751814738 0.0379449
-3.9889061078 0.0257383
-3.49029379632 0.0334547
-2.99168121291 0.0390726
-2.49306835754 0.0358705
-1.99445523016 0.0359064
-1.49584183076 0.0339734
-0.997228159285 0.0309115
-0.498614215711 0.03817
0 0.0592503
0.498614487881 0.0851758
0.997229247966 0.124778
1.49584428029 0.130727
1.99445958488 0.117736
2.49307516179 0.0718886
2.99169101103 0.0312213
3.49030713265 0.0166731
3.98892352668 0.0047054
4.48754019315 0
4.98615713209 0.0201556
5.48477434355 0.041127
5.98339182756 0.105329
6.48200958415 0.163823
6.98062761335 0.169828
7.47924591519 0.160009
7.97786448972 0.1543
8.47648333697 0.150428
8.97510245697 0.151994
9.47372184975 0.147995
9.97234151535 0.146856
10.4709614538 0.144493
10.9695816651 0.141834
11.4682021494 0.142033
11.9668229066 0.143982
12.4654439368 0.141019
12.9640652401 0.151404
13.4626868163 0.187401
13.9613086657 0.208198
14.4599307882 0.223667
14.9585531839 0.24642
15.4571758527 0.270008
15.9557987948 0.297084
16.4544220102 0.326911
16.9530454988 0.349446
17.4516692608 0.358927
17.9502932961 0.374965
18.4489176048 0.404754
18.947542187 0.449495
19.4461670426 0.505916
19.9447921717 0.551147
20.4434175744 0.593066
20.9420432506 0.618262
21.4406692004 0.637668
21.9392954239 0.651095
22.437921921 0.66308
22.9365486918 0.67736
23.4351757364 0.723097
23.9338030547 0.767972
24.4324306469 0.812795
24.9310585128 0.844698
