-24.9420106133 0.0975063
-24.4431766105 0.0921121
-23.9443423548 0.0989401
-23.445507846 0.111676
-22.9466730842 0.116784
-22.4478380693 0.151959
-21.9490028013 0.22428
-21.4501672802 0.320512
-20.9513315059 0.475394
-20.4524954785 0.584919
-19.9536591978 0.647828
-19.4548226638 0.668598
-18.9559858766 0.666582
-18.4571488361 0.649078
-17.9583115422 0.620704
-17.459473995 0.588028
-16.9606361944 0.602121
-16.4617981403 0.588245
-15.9629598328 0.554057
-15.4641212719 0.481539
-14.9652824574 0.388721
-14.4664433894 0.252093
-13.9676040678 0.133065
-13.4687644926 0.0455794
-12.9699246638 0.0625586
-12.4710845814 0.0799917
-11.9722442452 0.0743597
-11.4734036554 0.0536728
-10.9745628118 0.028443
-10.4757217145 0.0278782
-9.97688036338 0.0183401
-9.47803875843 0.0126895
-8.97919689962 0.00479008
-8.48035478694 0
-7.98151242035 0.00991
-7.48266979982 0.0445166
-6.98382692532 0.0436209
-6.48498379684 0.0413411
-5.98614041432 0.0414933
-5.48729677776 0.0403577
-4.98845288712 0.0416249
-4.48960874237 0.0416607
-3.99076434348 0.0388917
-3.49191969042 0.040948
-2.99307478317 0.0438104
-2.4942296217 0.0490621
-1.99538420598 0.0635684
-1.49653853597 0.0768479
-0.997692611662 0.0888013
-0.498846433014 0.119283
0 0.153661
0.498846687408 0.180452
0.997693629238 0.197608
1.49654082552 0.220286
1.99538827628 0.236423
2.49423598155 0.255518
2.99308394135 0.273026
3.49193215572 0.294967
3.99078062468 0.305411
4.48962934827 0.305287
4.9884783265 0.308797
5.48732755942 0.295886
5.98617704703 0.3132
6.48502678939 0.359567
6.98387678651 0.419545
7.48272703842 0.491371
7.98157754515 0.50187
8.48042830673 0.513383
8.97927932319 0.51
9.47813059456 0.524791
9.97698212086 0.572811
10.4758339021 0.602312
10.9746859384 0.60953
11.4735382296 0.610724
11.972390776 0.5971
12.4712435774 0.543152
12.9700966339 0.506277
13.4689499455 0.472971
13.9678035123 0.451
14.4666573343 0.457155
14.9655114115 0.459311
15.4643657439 0.455595
15.9632203316 0.445404
16.4620751747 0.434064
16.960930273 0.426911
17.4597856267 0.424253
17.9586412358 0.42399
18.4574971004 0.417578
18.9563532203 0.410602
19.4552095957 0.404845
19.9540662267 0.392961
20.4529231131 0.371518
20.9517802552 0.368572
21.4506376528 0.38449
21.949495306 0.39243
22.4483532149 0.388278
22.9472113794 0.384485
23.4460697996 0.377616
23.9449284756 0.369325
24.4437874073 0.375316
24.9426465948 0.382437
