-24.9380025751 1.08492
-24.4392488978 1.08474
-23.9404949608 1.07592
-23.4417407642 1.06504
-22.9429863077 1.07572
-22.4442315916 1.07834
-21.9454766156 1.07606
-21.4467213797 1.07086
-20.947965884 1.05834
-20.4492101285 1.06575
-19.9504541129 1.0874
-19.4516978375 1.1099
-18.952941302 1.14195
-18.4541845065 1.1832
-17.955427451 1.20326
-17.4566701354 1.22928
-16.9579125597 1.25034
-16.4591547238 1.29398
-15.9603966278 1.31054
-15.4616382715 1.24932
-14.962879655 1.19787
-14.4641207783 1.13336
-13.9653616413 1.08976
-13.4666022439 1.07418
-12.9678425862 1.04231
-12.4690826681 0.988766
-11.9703224895 0.944229
-11.4715620506 0.910296
-10.9728013511 0.867
-10.4740403912 0.823273
-9.97527917065 0.775736
-9.47651768958 0.698481
-8.9777559479 0.606626
-8.47899394559 0.485705
-7.98023168262 0.330408
-7.48146915895 0.175511
-6.98270637457 0.0764934
-6.48394332942 0.0292679
-5.98518002349 0.00606331
-5.48641645675 0.00615918
-4.98765262916 0.00520439
-4.48888854069 0.0127366
-3.99012419132 0.00611155
-3.491359581 0
-2.99259470972 0.0017872
-2.49382957745 0.00389526
-1.99506418414 0.00687528
-1.49629852977 0.00635162
-0.99753261431 0.00373364
-0.49876643773 0.00335632
0 0.00770181
0.498766698912 0.00915368
0.997533659037 0.00925802
1.4963008804 0.011378
1.99506836304 0.0150652
2.49383610699 0.0254711
2.99260411227 0.0471326
3.49137237891 0.0931912
3.99014090695 0.148543
4.48890969641 0.197629
4.98767874733 0.254669
5.48644805973 0.305836
5.98521763365 0.34628
6.48398746912 0.418915
6.98275756616 0.493551
7.48152792481 0.540333
7.9802985451 0.560389
8.47906942706 0.560084
8.97784057072 0.545083
9.47661197611 0.50704
9.97538364325 0.481583
10.4741555722 0.466074
10.9729277629 0.453438
11.4717002155 0.462933
11.97047293 0.474366
12.4692459064 0.496322
12.9680191448 0.524511
13.4667926451 0.561268
13.9655664074 0.59408
14.4643404317 0.631144
14.9631147181 0.661626
15.4618892666 0.692716
15.9606640773 0.731311
16.45943915 0.747161
16.958214485 0.758166
17.4569900822 0.767477
17.9557659416 0.787076
18.4545420633 0.820278
18.9533184473 0.827331
19.4520950936 0.810496
19.9508720023 0.825919
20.4496491734 0.858628
20.9484266069 0.900577
21.4472043029 0.933577
21.9459822614 0.968897
22.4447604823 0.970141
22.9435389659 0.933304
23.442317712 0.910897
23.9410967207 0.918227
24.439875992 0.919911
24.938655526 0.916638
