-24.9419821694 0.370323
-24.4431487312 0.365514
-23.9443150402 0.365679
-23.4454810963 0.338318
-22.9466468996 0.283575
-22.44781245 0.241882
-21.9489777474 0.231364
-21.4501427919 0.220084
-20.9513075834 0.217226
-20.4524721219 0.239512
-19.9536364074 0.235493
-19.4548004398 0.177099
-18.9559642191 0.126216
-18.4571277452 0.0986625
-17.9582910182 0.0713261
-17.459454038 0.0665138
-16.9606168046 0.0592377
-16.4617793179 0.0566093
-15.962941578 0.0635942
-15.4641035848 0.0887532
-14.9652653382 0.11539
-14.4664268383 0.12852
-13.9675880849 0.113794
-13.4687490782 0.10796
-12.969909818 0.125049
-12.4710703044 0.136249
-11.9722305372 0.143983
-11.4733905165 0.160149
-10.9745502423 0.185992
-10.4757097144 0.214992
-9.97686893298 0.245488
-9.47802789788 0.240126
-8.9791866091 0.196497
-8.48034506661 0.159944
-7.9815032704 0.140173
-7.48266122042 0.125398
-6.98381891666 0.119515
-6.48497635907 0.115328
-5.98613354764 0.11903
-5.48729048233 0.121064
-4.98844716312 0.116402
-4.48960358998 0.110043
-3.99075976287 0.0756893
-3.49191568178 0.0550148
-2.99307134666 0.068836
-2.4942267575 0.104941
-1.99538191427 0.160735
-1.49653681693 0.210646
-0.997691465456 0.247759
-0.498845859822 0.312802
0 0.356581
0.498846114041 0.394393
0.997692482329 0.452642
1.49653910489 0.520496
1.99538598176 0.573941
2.49423311296 0.558793
2.99308049852 0.531938
3.49192813846 0.404501
3.99077603283 0.247375
4.48962418164 0.137134
4.98847258493 0.086065
5.48732124272 0.0584945
5.98617015504 0.0390302
6.48501932192 0.012124
6.98386874339 0.00422403
7.48271841947 0.00606636
7.9815683502 0.00234983
8.48041853561 0.00244133
8.97926897571 0
9.47811967055 0.00399955
9.97697062014 0.028271
10.4758218245 0.0580733
10.9746732837 0.0795626
11.4735249978 0.0982608
11.9723769667 0.116207
12.4712291905 0.13542
12.9700816692 0.170597
13.4689344029 0.205789
13.9677873916 0.243307
14.4666406353 0.263142
14.9654941341 0.287951
15.4643478879 0.308854
15.9632018968 0.301254
16.4620561608 0.283073
16.96091068 0.268771
17.4597654544 0.279707
17.958620484 0.304309
18.4574757688 0.332032
18.9563313089 0.371642
19.4551871043 0.428458
19.9540431551 0.471446
20.4528994611 0.482245
20.9517560226 0.490218
21.4506128395 0.526752
21.9494699118 0.56419
22.4483272395 0.610285
22.9471848228 0.65102
23.4460426616 0.684693
23.9449007559 0.705129
24.4437591059 0.720598
24.9426177114 0.739476
