-24.936675847 0.476005
-24.4379487601 0.476561
-23.9392214112 0.475177
-23.4404938003 0.467773
-22.9417659275 0.457908
-22.4430377926 0.451892
-21.9443093956 0.451374
-21.4455807365 0.454232
-20.9468518153 0.462188
-20.4481226319 0.472324
-19.9493931863 0.46978
-19.4506634785 0.475516
-18.9519335084 0.489413
-18.4532032761 0.507135
-17.9544727814 0.50916
-17.4557420243 0.511364
-16.9570110049 0.536544
-16.458279723 0.588336
-15.9595481787 0.595645
-15.4608163719 0.576467
-14.9620843026 0.550537
-14.4633519707 0.534151
-13.9646193763 0.543569
-13.4658865193 0.581374
-12.9671533996 0.603858
-12.4684200173 0.590146
-11.9696863723 0.636591
-11.4709524645 0.682915
-10.9722182939 0.70604
-10.4734838606 0.744477
-9.97474916447 0.789513
-9.47601420546 0.808812
-8.97727898357 0.773926
-8.47854349875 0.736655
-7.97980775098 0.662795
-7.48107174024 0.568547
-6.98233546648 0.514821
-6.48359892967 0.416627
-5.98486212979 0.302864
-5.4861250668 0.199115
-4.98738774068 0.110573
-4.48865015138 0.0530149
-3.98991229889 0.0323352
-3.49117418317 0.0260313
-2.99243580418 0.0170048
-2.4936971619 0.0103476
-1.99495825629 0.00448745
-1.49621908733 0.00210651
-0.997479654983 0.00150834
-0.498739959216 0.00208676
0 0.00397537
0.498740222697 0.00443017
0.997480708904 0.00305339
1.49622145865 0.00186649
1.99496247198 0
2.49370374891 0.000747389
2.99244528947 0.0119326
3.49118709371 0.0475968
3.98992916164 0.0983373
4.48867149329 0.196937
4.98741408871 0.296554
5.48615694792 0.400723
5.98490007096 0.498858
6.48364345784 0.582197
6.98238710861 0.667176
7.4811310233 0.748666
7.97987520193 0.789223
8.47861964454 0.782071
8.97736435116 0.800394
9.47610932182 0.855731
9.97485455655 0.889309
10.4736000554 0.917829
10.9723458183 0.963883
11.4710918455 1.01373
11.9698381368 1.04806
12.4685846923 1.07519
12.9673315121 1.12604
13.4660785962 1.13185
13.9648259446 1.10204
14.4635735574 1.11462
14.9623214345 1.13185
15.4610695761 1.09195
15.9598179821 1.04071
16.4585666525 1.00783
16.9573155875 0.955981
17.456064787 0.893258
17.9548142511 0.840652
18.4535639797 0.803366
18.952313973 0.782961
19.451064231 0.77399
19.9498147536 0.767611
20.448565541 0.762896
20.9473165931 0.759348
21.44606791 0.755931
21.9448194917 0.748735
22.4435713382 0.741295
22.9423234496 0.735831
23.441075826 0.740871
23.9398284672 0.757869
24.4385813734 0.77908
24.9373345447 0.808067
