-24.9420011335 0.323844
-24.4431673189 0.33855
-23.9443332514 0.361904
-23.4454989309 0.395808
-22.9466643574 0.423199
-22.4478295309 0.432029
-21.9489944514 0.465709
-21.4501591188 0.48092
-20.9513235331 0.494849
-20.4524876942 0.48452
-19.9536516022 0.490997
-19.454815257 0.510616
-18.9559786586 0.516848
-18.4571418069 0.521643
-17.958304702 0.531098
-17.4594673437 0.579735
-16.9606297322 0.609981
-16.4617918672 0.584443
-15.9629537489 0.537531
-15.4641153771 0.475644
-14.9652767519 0.387325
-14.4664378732 0.274078
-13.967598741 0.195277
-13.4687593553 0.145507
-12.969919716 0.117696
-12.4710798231 0.121468
-11.9722396766 0.136955
-11.4733992765 0.156232
-10.9745586227 0.145248
-10.4757177151 0.0690427
-9.97687655387 0.0187512
-9.47803513884 1.79885e-05
-8.97919347001 0
-8.48035154736 0.0115231
-7.98150937086 0.019187
-7.48266694049 0.0201977
-6.98382425621 0.0211654
-6.48498131799 0.0226222
-5.9861381258 0.0236847
-5.48729467963 0.0233668
-4.98845097943 0.0246
-4.48960702518 0.0269587
-3.99076281686 0.0295838
-3.49191835443 0.0351213
-2.99307363786 0.0326562
-2.49422866712 0.0301287
-1.9953834422 0.0516799
-1.49653796305 0.0805118
-0.997692229656 0.11163
-0.498846241982 0.138046
0 0.145601
0.498846496317 0.139741
0.997693246998 0.136756
1.49654025207 0.138415
1.99538751156 0.145289
2.49423502551 0.154894
2.99308279393 0.195007
3.49193081685 0.224326
3.99077909432 0.19877
4.48962762634 0.151932
4.98847641296 0.138776
5.48732545419 0.155102
5.98617475008 0.206291
6.48502430064 0.272392
6.98387410591 0.319207
7.48272416591 0.345944
7.98157448067 0.347237
8.48042505023 0.348493
8.9792758746 0.353618
9.47812695382 0.35816
9.97697828791 0.355035
10.4758298769 0.353993
10.9746817208 0.359798
11.4735338197 0.370257
11.9723861736 0.371823
12.4712387825 0.375975
12.9700916465 0.382741
13.4689447655 0.402799
13.9677981396 0.424124
14.4666517689 0.431374
14.9655056533 0.43823
15.4643597929 0.441822
15.9632141877 0.439246
16.4620688378 0.433378
16.9609237431 0.442805
17.4597789037 0.444903
17.9586343197 0.442231
18.457489991 0.438322
18.9563459177 0.483844
19.4552020998 0.518858
19.9540585374 0.557663
20.4529152304 0.593946
20.951772179 0.612191
21.450629383 0.598793
21.9494868426 0.561428
22.4483445578 0.542734
22.9472025287 0.554265
23.4460607551 0.57856
23.9449192372 0.598062
24.443777975 0.604697
24.9426369686 0.624212
