-24.9428175153 0.874739
-24.4439673601 0.961609
-23.9451169525 1.01229
-23.4462662925 1.03383
-22.9474153801 1.05085
-22.4485642151 1.05422
-21.9497127976 1.04678
-21.4508611276 1.02812
-20.9520092049 0.997531
-20.4531570297 0.950287
-19.9543046018 0.921077
-19.4554519213 0.912651
-18.9565989881 0.916476
-18.4577458021 0.91779
-17.9588923634 0.89696
-17.4600386719 0.870567
-16.9611847276 0.857256
-16.4623305305 0.847349
-15.9634760805 0.83992
-15.4646213777 0.840661
-14.9657664219 0.864594
-14.4669112131 0.878824
-13.9680557514 0.885148
-13.4692000367 0.896354
-12.9703440689 0.91199
-12.4714878481 0.929622
-11.9726313742 0.9423
-11.4737746472 0.90738
-10.974917667 0.789774
-10.4760604336 0.607772
-9.97720294707 0.466403
-9.47834520729 0.45875
-8.97948721425 0.510192
-8.48062896792 0.609998
-7.98177046827 0.703014
-7.48291171528 0.702941
-6.98405270892 0.524503
-6.48519344915 0.281229
-5.98633393596 0.101846
-5.48747416931 0.0279738
-4.98861414918 0.00477494
-4.48975387554 0.00273042
-3.99089334835 0.000437689
-3.49203256759 0
-2.99317153324 0.000741625
-2.49431024526 0.0765634
-1.99544870363 0.298949
-1.49658690832 0.528872
-0.997724859291 0.626134
-0.498862556529 0.633044
0 0.566374
0.498862810323 0.500725
0.997725874468 0.478246
1.49658919246 0.489252
1.99545276434 0.518723
2.49431659012 0.583847
2.99318066983 0.680963
3.49204500351 0.832301
3.99090959118 0.931234
4.48977443287 0.956213
4.98863952861 0.938958
5.48750487842 0.869485
5.98637048233 0.767278
6.48523634037 0.655132
6.98410245258 0.511919
7.48296881897 0.351033
7.98183543958 0.257189
8.48070231442 0.233427
8.97956944354 0.254379
9.47843682696 0.297305
9.97730446471 0.339237
10.4761723568 0.389737
10.9750405033 0.482319
11.4739089042 0.633243
11.9727775595 0.815114
12.4716464693 1.00778
12.9705156336 1.20243
13.4693850524 1.35242
13.9682547258 1.36773
14.4671246538 1.30616
14.9659948363 1.2043
15.4648652735 1.05046
15.9637359654 0.896645
16.4626069119 0.730409
16.9614781132 0.587847
17.4603495692 0.518751
17.95922128 0.490299
18.4580932455 0.442507
18.956965466 0.411035
19.4558379412 0.410937
19.9547106714 0.425784
20.4535836565 0.414496
20.9524568965 0.404861
21.4513303915 0.414043
21.9502041414 0.406259
22.4490781464 0.386924
22.9479524065 0.383666
23.4468269216 0.384646
23.9457016919 0.383767
24.4445767173 0.422375
24.9434519978 0.496873
