-24.9428279657 0.520347
-24.4439776031 0.568118
-23.945126988 0.610053
-23.4462761205 0.674556
-22.9474250004 0.735552
-22.4485736277 0.788624
-21.9497220025 0.863343
-21.4508701246 0.954644
-20.9520179941 1.02653
-20.4531656109 1.06022
-19.954312975 1.05697
-19.4554600864 1.02197
-18.9566069451 1.00542
-18.4577535509 1.00364
-17.9588999039 1.00276
-17.4600460041 0.980956
-16.9611918514 0.950791
-16.4623374458 0.9022
-15.9634827873 0.854629
-15.4646278759 0.816522
-14.9657727114 0.793708
-14.4669172939 0.779595
-13.9680616234 0.784352
-13.4692056999 0.798866
-12.9703495232 0.810882
-12.4714930934 0.831271
-11.9726364104 0.876374
-11.4737794743 0.88152
-10.974922285 0.811218
-10.4760648424 0.624147
-9.97720714652 0.510515
-9.47834919737 0.407468
-8.9794909949 0.290496
-8.48063253908 0.16655
-7.98177382988 0.086296
-7.48291486727 0.060227
-6.98405565122 0.0602308
-6.48519618171 0.125605
-5.98633645871 0.17232
-5.48747648219 0.174112
-4.98861625211 0.136947
-4.48975576846 0.0643022
-3.99089503121 0.0256613
-3.49203404032 0.0126745
-2.99317279577 0.00785647
-2.49431129753 0
-1.99544954557 0.0146922
-1.49658753987 0.114279
-0.997725280391 0.269019
-0.49886276711 0.45388
0 0.495852
0.498863020969 0.477467
0.997726295823 0.427453
1.49658982459 0.382615
1.99545360731 0.300117
2.49431764399 0.224789
2.99318193467 0.179626
3.49204647938 0.245688
3.99091127815 0.424017
4.48977633099 0.599049
4.98864163795 0.756697
5.48750719905 0.871652
5.98637301431 0.919104
6.48523908377 0.956238
6.98410540745 0.860479
7.48297198539 0.606086
7.9818388176 0.372348
8.48070590412 0.337128
8.97957324497 0.327825
9.47844084019 0.318142
9.9773086898 0.322961
10.4761767938 0.32534
10.9750451523 0.356942
11.4739137653 0.440844
11.9727826327 0.537139
12.4716517547 0.660404
12.9705211312 0.80963
13.4693907624 0.898366
13.9682606481 1.00301
14.4671307885 1.20448
14.9660011836 1.36989
15.4648718333 1.47438
15.9637427378 1.4176
16.462613897 1.22009
16.9614853111 1.10356
17.4603569799 1.02051
17.9592289036 0.942436
18.4581010821 0.904706
18.9569735155 0.900052
19.4558462039 0.908572
19.9547191472 0.833019
20.4535923455 0.669134
20.9524657987 0.504649
21.4513395071 0.418357
21.9502134704 0.385552
22.4490876889 0.386533
22.9479621625 0.390419
23.4468368912 0.386756
23.9457118751 0.402254
24.4445871142 0.441363
24.9434626085 0.485629
