-24.9352730878 0.22588
-24.4365741125 0.190108
-23.9378748731 0.174407
-23.4391753694 0.173857
-22.9404756013 0.15698
-22.4417755689 0.140921
-21.9430752722 0.140755
-21.444374711 0.145492
-20.9456738854 0.14448
-20.4469727954 0.144167
-19.9482714408 0.144577
-19.4495698217 0.142164
-18.9508679381 0.141089
-18.4521657898 0.144556
-17.9534633769 0.153851
-17.4547606994 0.168797
-16.9560577571 0.197145
-16.4573545502 0.237299
-15.9586510784 0.291923
-15.4599473419 0.347963
-14.9612433406 0.394599
-14.4625390744 0.437922
-13.9638345433 0.425172
-13.4651297473 0.415031
-12.9664246864 0.400925
-12.4677193605 0.377068
-11.9690137695 0.338939
-11.4703079135 0.29796
-10.9716017925 0.236663
-10.4728954063 0.11254
-9.974188755 0.055709
-9.47548183852 0.0235568
-8.97677465683 0.00937977
-8.4780672099 0.00112568
-7.97935949771 0
-7.48065152021 0.00198514
-6.98194327739 0.00384647
-6.48323476919 0.00627669
-5.9845259956 0.0162863
-5.48581695659 0.0611377
-4.98710765211 0.142983
-4.48839808214 0.241295
-3.98968824664 0.317187
-3.49097814559 0.366124
-2.99226777895 0.401049
-2.4935571467 0.417439
-1.99484624879 0.401536
-1.49613508519 0.366537
-0.997423655887 0.282379
-0.498711960833 0.192815
0 0.128291
0.498712226644 0.101292
0.99742471913 0.0937445
1.49613747749 0.0910676
1.99485050176 0.0968352
2.49356379196 0.101676
2.99227734814 0.113685
3.49099117031 0.145951
3.98970525852 0.198017
4.48841961279 0.269053
4.98713423316 0.372183
5.48584911966 0.462245
5.98456427232 0.51301
6.48327969117 0.524044
6.98199537624 0.509485
7.48071132757 0.515401
7.97942754518 0.533942
8.47814402912 0.558887
8.9768607794 0.587363
9.47557779607 0.618398
9.97429507915 0.64023
10.4730126287 0.648917
10.9717304447 0.656516
11.4704485272 0.657692
11.9691668762 0.697836
12.4678854919 0.803814
12.9666043741 0.918024
13.465323523 1.0047
13.9640429385 1.05954
14.4627626207 1.09963
14.9614825697 1.05767
15.4602027854 0.957104
15.9589232679 0.883467
16.4576440172 0.802525
16.9563650334 0.758785
17.4550863165 0.74161
17.9538078665 0.73534
18.4525296835 0.731111
18.9512517674 0.728926
19.4499741184 0.729331
19.9486967364 0.740753
20.4474196215 0.725904
20.9461427736 0.695367
21.444866193 0.648658
21.9435898795 0.586461
22.4423138332 0.508417
22.9410380541 0.446493
23.4397625423 0.418043
23.9384872978 0.434203
24.4372123206 0.44722
24.9359376108 0.43109
