-24.9805478061 1.40343
-24.4809413258 1.35331
-23.981334663 1.32216
-23.4817278177 1.30574
-22.9821207898 1.29345
-22.4825135794 1.30464
-21.9829061864 1.3183
-21.4832986108 1.31004
-20.9836908526 1.31902
-20.4840829118 1.32515
-19.9844747884 1.32426
-19.4848664824 1.21969
-18.9852579937 1.03196
-18.4856493224 0.951895
-17.9860404685 0.934238
-17.4864314319 0.917097
-16.9868222126 0.870735
-16.4872128107 0.805256
-15.987603226 0.741761
-15.4879934587 0.735466
-14.9883835087 0.709018
-14.4887733759 0.692391
-13.9891630604 0.695527
-13.4895525622 0.712907
-12.9899418812 0.727962
-12.4903310175 0.740037
-11.990719971 0.789093
-11.4911087417 0.836702
-10.9914973296 0.871207
-10.4918857348 0.88877
-9.9922739571 0.869279
-9.49266199662 0.795306
-8.99304985332 0.711825
-8.49343752719 0.609273
-7.99382501821 0.507588
-7.49421232638 0.411693
-6.99459945168 0.320048
-6.49498639412 0.275884
-5.99537315367 0.229693
-5.49575973033 0.20499
-4.99614612409 0.180825
-4.49653233493 0.142297
-3.99691836286 0.0867186
-3.49730420786 0.0322081
-2.99768986992 0.00206812
-2.49807534903 0.000774683
-1.99846064518 0.00330917
-1.49884575836 0.00528938
-0.999230688563 0
-0.49961543578 0.00648959
0 0.0326992
0.499615618787 0.059967
0.999231420589 0.0707714
1.49884740542 0.110671
1.99846357328 0.139262
2.49807992419 0.219976
2.99769645815 0.305606
3.49731317518 0.437996
3.99693007527 0.553996
4.49654715845 0.691357
4.99616442473 0.817976
5.4957818741 0.929574
5.99539950659 1.02168
6.4950173222 1.10913
6.99463532094 1.15784
7.49425350281 1.25281
7.99387186784 1.36734
8.49349041602 1.43006
8.99310914738 1.43983
9.49272806191 1.42325
9.99234715963 1.41864
10.4919664405 1.39365
10.9915859047 1.33048
11.491205552 1.33192
11.9908253826 1.33431
12.4904453964 1.32025
12.9900655934 1.29399
13.4896859737 1.24891
13.9893065372 1.17462
14.4889272841 1.07959
14.9885482142 0.989428
15.4881693276 0.975626
15.9877906243 0.956026
16.4874121043 0.971482
16.9870337676 1.00395
17.4866556143 0.934589
17.9862776443 0.869839
18.4858998576 0.783583
18.9855222543 0.727818
19.4851448344 0.704153
19.9847675978 0.709137
20.4843905446 0.731288
20.9840136749 0.763455
21.4836369885 0.788147
21.9832604855 0.7975
22.482884166 0.780279
22.9825080299 0.751929
23.4821320772 0.731655
23.981756308 0.735806
24.4813807222 0.723248
24.9810053199 0.697317
