-24.9380302912 0.51738
-24.4392760516 0.464528
-23.9405215527 0.427511
-23.4417667944 0.402731
-22.9430117767 0.419212
-22.4442564995 0.422769
-21.9455009628 0.410049
-21.4467451667 0.367009
-20.947989111 0.332977
-20.4492327957 0.315675
-19.9504762208 0.304893
-19.4517193863 0.306358
-18.9529622921 0.313086
-18.4542049382 0.325828
-17.9554473246 0.361514
-17.4566894513 0.366773
-16.9579313181 0.344266
-16.4591729252 0.373371
-15.9604142724 0.395058
-15.4616553597 0.395794
-14.9628961871 0.355604
-14.4641367546 0.298961
-13.9653770621 0.259953
-13.4666171096 0.218964
-12.967856897 0.203905
-12.4690964244 0.197752
-11.9703356917 0.202997
-11.4715746989 0.216968
-10.972813446 0.231918
-10.4740519328 0.233457
-9.97529015946 0.234052
-9.47652812585 0.234889
-8.97776583197 0.213242
-8.47900327778 0.190944
-7.98024046325 0.183334
-7.48147738835 0.229101
-6.98271405306 0.213155
-6.48395045733 0.226468
-5.98518660115 0.261236
-5.48642248447 0.310131
-4.98765810728 0.338429
-4.48889346953 0.359223
-3.99012857121 0.386131
-3.49136341227 0.392123
-2.99259799269 0.381615
-2.49383231243 0.382374
-1.99506637148 0.397389
-1.49630016978 0.398457
-0.997533707328 0.355937
-0.498766984077 0.248472
0 0.140243
0.498767244933 0.0698322
0.997534750751 0.0501539
1.49630251749 0.0361484
1.99507054517 0.0209939
2.49383883383 0.0112169
2.9926073835 0.00901792
3.49137619421 0.00736501
3.99014526598 0.00689317
4.48891459886 0.00382016
4.98768419286 0.00119545
5.48645404803 0.00235916
5.98522416438 0
6.48399454196 0.00155867
6.98276518079 0.00934164
7.4815360809 0.00529155
7.98030724232 0.0300933
8.47907866508 0.120637
8.97785034922 0.16656
9.47662229475 0.233799
9.97539450173 0.304663
10.4741669702 0.388718
10.9729397001 0.465157
11.4717126915 0.518449
11.9704859446 0.511514
12.4692594592 0.519541
12.9680332354 0.529745
13.4668072732 0.551501
13.9655815727 0.574168
14.464356134 0.571795
14.963130957 0.578649
15.4619060417 0.61995
15.9606813882 0.653832
16.4594569966 0.640905
16.9582328668 0.615423
17.4570089989 0.596927
17.9557853929 0.578486
18.4545620489 0.581263
18.9533389669 0.595123
19.4521161468 0.614072
19.9508935888 0.618405
20.4496712929 0.622905
20.9484492591 0.659345
21.4472274874 0.649594
21.9460059778 0.673216
22.4447847305 0.688665
22.9435637453 0.705575
23.4423430225 0.709828
23.9411225618 0.677319
24.4399023636 0.637401
24.9386824276 0.601778
