-24.990907376 0.973826
-24.4910930882 0.916926
-23.991278643 0.822551
-23.4914640404 0.724423
-22.9916492802 0.621861
-22.4918343626 0.528395
-21.9920192875 0.476465
-21.4922040549 0.473692
-20.9923886648 0.455906
-20.4925731171 0.442396
-19.992757412 0.428602
-19.4929415494 0.441034
-18.9931255293 0.450272
-18.4933093516 0.458165
-17.9934930164 0.470364
-17.4936765237 0.474665
-16.9938598734 0.485151
-16.4940430657 0.465951
-15.9942261003 0.425118
-15.4944089775 0.385327
-14.994591697 0.349797
-14.494774259 0.32525
-13.9949566635 0.308177
-13.4951389104 0.280152
-12.9953209997 0.235509
-12.4955029314 0.20117
-11.9956847056 0.190874
-11.4958663222 0.207227
-10.9960477812 0.201372
-10.4962290826 0.185274
-9.99641022637 0.188964
-9.49659121257 0.215051
-8.99677204116 0.220675
-8.49695271214 0.213075
-7.99713322551 0.194481
-7.49731358125 0.164834
-6.99749377938 0.127416
-6.49767381987 0.102981
-5.99785370273 0.0926353
-5.49803342795 0.0755179
-4.99821299553 0.0637109
-4.49839240546 0.0596848
-3.99857165774 0.0418897
-3.49875075237 0.0300907
-2.99892968933 0.0165139
-2.49910846863 0.0119096
-1.99928709026 0.0105356
-1.49946555422 0.00591912
-0.999643860495 0.00377552
-0.499822009092 0
0 0.00694982
0.499822166783 0.00442073
0.999644491262 0.0102098
1.49946697344 0.0180505
1.99928961333 0.0354053
2.49911241092 0.0454567
2.99893536623 0.0443874
3.49875847925 0.0422762
3.99858175 0.0401631
4.49840517848 0.0393564
4.99822876468 0.0444114
5.49805250862 0.0514419
5.99787641031 0.0518961
6.49770046973 0.0401508
6.99752468691 0.0485274
7.49734906184 0.0745102
7.99717359453 0.116138
8.49699828498 0.163211
8.99682313319 0.226783
9.49664813918 0.28981
9.99647330294 0.338976
10.4962986245 0.399618
10.9961241038 0.469876
11.4959497409 0.511379
11.9957755358 0.539889
12.4956014885 0.536407
12.995427599 0.562399
13.4952538674 0.595816
13.9950802935 0.656057
14.4949068774 0.789085
14.9947336192 0.841221
15.4945605187 0.85138
15.9943875762 0.860227
16.4942147914 0.818998
16.9940421645 0.747764
17.4938696954 0.710871
17.9936973841 0.667019
18.4935252307 0.618998
18.9933532352 0.598001
19.4931813975 0.587515
19.9930097177 0.585283
20.4928381958 0.596117
20.9926668317 0.611948
21.4924956255 0.653587
21.9923245771 0.704903
22.4921536867 0.737165
22.9919829541 0.733651
23.4918123795 0.701021
23.9916419627 0.665157
24.4914717038 0.643731
24.9913016029 0.639058
