-24.9343968571 0.918492
-24.4357154266 0.880922
-23.9370337312 0.836256
-23.4383517706 0.780929
-22.9396695449 0.746759
-22.440987054 0.754937
-21.942304298 0.767292
-21.4436212767 0.799251
-20.9449379902 0.850494
-20.4462544383 0.909604
-19.9475706212 0.982346
-19.4488865387 1.00282
-18.9502021908 1.00644
-18.4515175775 1.00043
-17.9528326988 0.953978
-17.4541475545 0.950345
-16.9554621448 0.991975
-16.4567764695 1.04296
-15.9580905286 1.09475
-15.4594043221 1.11718
-14.96071785 1.10625
-14.4620311122 1.11545
-13.9633441087 1.14502
-13.4646568394 1.1702
-12.9659693043 1.18556
-12.4672815035 1.17586
-11.9685934368 1.13709
-11.4699051042 1.08189
-10.9712165058 1.01751
-10.4725276414 0.916427
-9.97383851098 0.79694
-9.4751491146 0.660378
-8.97645945219 0.517959
-8.47776952371 0.393693
-7.97907932913 0.247777
-7.48038886842 0.121717
-6.98169814155 0.0539114
-6.48300714847 0.0200238
-5.98431588917 0.0077652
-5.48562436361 0.00927828
-4.98693257176 0.00744658
-4.48824051358 0.00206753
-3.98954818904 0
-3.49085559812 0.0172855
-2.99216274077 0.0773601
-2.49346961697 0.185945
-1.99477622668 0.275757
-1.49608256987 0.352187
-0.997388646506 0.394431
-0.49869445656 0.402477
0 0.3982
0.498694723208 0.380339
0.997389713098 0.338472
1.4960849697 0.29502
1.99478049305 0.250922
2.49347628317 0.215594
2.9921723401 0.197326
3.49086866388 0.190332
3.98956525452 0.196852
4.48826211208 0.189257
4.98695923657 0.191986
5.48565662803 0.20038
5.98435428649 0.198192
6.48305221199 0.187318
6.98175040456 0.19328
7.48044886422 0.198584
7.97914759102 0.213804
8.47784658498 0.22604
8.97654584613 0.257443
9.47524537451 0.293476
9.97394517015 0.347663
10.4726452331 0.393924
10.9713455633 0.416584
11.4700461609 0.473757
11.9687470259 0.540417
12.4674481584 0.674753
12.9661495582 0.814719
13.4648512256 0.895709
13.9635531605 0.949711
14.4622553629 0.984985
14.9609578329 0.979971
15.4596605705 0.9534
15.9583635757 0.948074
16.4570668487 0.950484
16.9557703893 0.930773
17.4544741977 0.896731
17.9531782739 0.878083
18.4518826178 0.857534
18.9505872296 0.838416
19.4492921093 0.82407
19.9479972568 0.831595
20.4467026723 0.830394
20.9454083558 0.832922
21.4441143072 0.856533
21.9428205267 0.863753
22.4415270143 0.873129
22.9402337699 0.887597
23.4389407937 0.908876
23.9376480856 0.928414
24.4363556457 0.954952
24.935063474 0.974385
