-24.9379810156 0.368094
-24.4392277538 0.363944
-23.9404742331 0.366298
-23.4417204532 0.347694
-22.9429664143 0.348364
-22.4442121162 0.451949
-21.9454575589 0.565367
-21.4467027425 0.728129
-20.9479476668 0.955185
-20.4491923319 1.21166
-19.9504367377 1.37051
-19.4516808841 1.36248
-18.9529247712 1.31775
-18.454168399 1.23902
-17.9554117673 1.19224
-17.4566548762 1.21555
-16.9578977256 1.22849
-16.4591403155 1.24691
-15.9603826458 1.25859
-15.4616247166 1.26249
-14.9628665278 1.26769
-14.4641080794 1.26701
-13.9653493713 1.26204
-13.4665904036 1.21937
-12.9678311761 1.22253
-12.4690716888 1.17727
-11.9703119418 1.12905
-11.471551935 1.07906
-10.9727916683 1.00354
-10.4740311418 0.883517
-9.97527035536 0.711506
-9.47650930899 0.52864
-8.97774800265 0.373621
-8.47898643632 0.231489
-7.98022460997 0.136974
-7.48146252356 0.0595791
-6.98270017706 0.0238087
-6.48393757045 0.010701
-5.98517470369 0.00677394
-5.48641157675 0.00815311
-4.98764818961 0.00550903
-4.48888454222 0.00369154
-3.99012063457 0.00226598
-3.49135646662 0.00146793
-2.99259203834 0.00236741
-2.49382734969 0.000735856
-1.99506240066 0.000173091
-1.4962971912 0.00118097
-0.997531721295 0.00144412
-0.498765990904 0
0 0.00186515
0.498766251447 0.00775954
0.997532763469 0.00741096
1.4962995361 0.0137852
1.99506656936 0.0213554
2.49383386328 0.0208887
2.99260141791 0.0164957
3.49136923326 0.0234228
3.99013730936 0.0365435
4.48890564625 0.0324238
4.98767424397 0.0578825
5.48644310252 0.137436
5.98521222196 0.259689
6.48398160231 0.348518
6.98275124359 0.412769
7.48152114585 0.413988
7.9802913091 0.417328
8.47906173339 0.382084
8.97783241874 0.334614
9.47660336518 0.269534
9.97537457274 0.24832
10.4741460414 0.230915
10.9729177713 0.170036
11.4716897624 0.135026
11.9704620148 0.110884
12.4692345284 0.089407
12.9680073033 0.0573315
13.4667803396 0.0461762
13.9655536372 0.0470235
14.4643271962 0.0537359
14.9631010167 0.0706043
15.4618750986 0.103249
15.960649442 0.154483
16.4594240469 0.192501
16.9581989133 0.228549
17.4569740413 0.285746
17.955749431 0.407954
18.4545250822 0.560387
18.9533009952 0.658358
19.4520771698 0.69967
19.9508536062 0.724485
20.4496303043 0.742609
20.9484072642 0.749084
21.4471844859 0.752988
21.9459619695 0.750163
22.4447397149 0.758144
22.9435177223 0.783889
23.4422959916 0.835776
23.9410745228 0.819182
24.4398533161 0.71705
24.9386323714 0.616859
