-24.941972685 0.410194
-24.443139435 0.35142
-23.9443059323 0.275763
-23.4454721769 0.236896
-22.9466381686 0.213364
-22.4478039074 0.215871
-21.9489693934 0.202011
-21.4501346265 0.167574
-20.9512996067 0.164251
-20.4524643339 0.173695
-19.9536288081 0.175372
-19.4547930294 0.171001
-18.9559569975 0.229914
-18.4571207126 0.283682
-17.9582841746 0.314721
-17.4594473835 0.272647
-16.9606103392 0.20806
-16.4617730418 0.140153
-15.9629354911 0.125659
-15.4640976871 0.123376
-14.9652596299 0.136452
-14.4664213194 0.143148
-13.9675827556 0.159173
-13.4687439384 0.162855
-12.9699048678 0.149103
-12.4710655438 0.144656
-11.9722259664 0.145671
-11.4733861355 0.149947
-10.9745460511 0.163682
-10.4757057131 0.185652
-9.97686512161 0.202577
-9.47802427652 0.236805
-8.97918317781 0.250649
-8.48034182545 0.28806
-7.98150021942 0.340232
-7.48265835969 0.35258
-6.98381624623 0.354611
-6.48497387901 0.34281
-5.986131258 0.321155
-5.48728838317 0.303149
-4.9884452545 0.274373
-4.48960187196 0.24002
-3.99075823551 0.223517
-3.49191434513 0.234046
-2.99307020079 0.247173
-2.49422580246 0.255081
-1.99538115012 0.275965
-1.49653624373 0.293534
-0.997691083263 0.299405
-0.498845668697 0.324995
0 0.340951
0.498845922857 0.345731
0.997692099901 0.351808
1.49653853116 0.349922
1.99538521667 0.337151
2.49423215645 0.356974
2.99307935053 0.416399
3.49192679894 0.45623
3.99077450171 0.502869
4.48962245887 0.495192
4.98847067044 0.467786
5.48731913646 0.412718
5.98616785695 0.386291
6.48501683194 0.349954
6.98386606147 0.332184
7.48271554555 0.290385
7.98156528421 0.215697
8.48041527749 0.141649
8.97926552542 0.0862458
9.47811602802 0.0379559
9.97696678531 0.0102829
10.4758177973 0
10.9746690641 0.00658446
11.4735205857 0.0313925
11.9723723621 0.0497244
12.4712243933 0.0414523
12.9700766794 0.0361438
13.4689292204 0.0338406
13.9677820163 0.034069
14.4666350672 0.0478929
14.965488373 0.0644373
15.4643419339 0.0840899
15.9631957498 0.119136
16.4620498208 0.166703
16.9609041469 0.23545
17.4597587281 0.282468
17.9586135644 0.333833
18.457468656 0.375126
18.9563240027 0.422079
19.4551796047 0.510804
19.954035462 0.580991
20.4528915745 0.60468
20.9517479424 0.618459
21.4506045656 0.626463
21.9494614442 0.632752
22.4483185782 0.639773
22.9471759677 0.646442
23.4460336126 0.652439
23.944891513 0.658304
24.4437496689 0.670919
24.9426080804 0.685334
