-24.9367058564 0.527092
-24.437978174 0.531075
-23.9392502294 0.52491
-23.4405220227 0.517164
-22.9417935537 0.514162
-22.4430648226 0.511325
-21.9443358292 0.510795
-21.4456065734 0.524504
-20.9468770554 0.522103
-20.448147275 0.521637
-19.9494172322 0.531522
-19.4506869269 0.540608
-18.9519563593 0.545943
-18.4532255291 0.543249
-17.9544944364 0.541141
-17.4557630812 0.527124
-16.9570314634 0.516686
-16.458299583 0.507944
-15.9595674399 0.509224
-15.4608350342 0.502295
-14.9621023657 0.493854
-14.4633694346 0.49273
-13.9646362406 0.491695
-13.4659027839 0.493693
-12.9671690643 0.509276
-12.4684350819 0.5162
-11.9697008366 0.514736
-11.4709663283 0.514786
-10.9722315571 0.509374
-10.4734965229 0.499731
-9.97476122572 0.49869
-9.47602566546 0.501682
-8.97728984213 0.507688
-8.47855375569 0.505582
-7.97981740611 0.485272
-7.48108079335 0.46913
-6.98234391739 0.430045
-6.48360677819 0.325557
-5.98486937573 0.221614
-5.48613170996 0.128084
-4.98739378087 0.0409596
-4.48865558842 0.0069413
-3.98991713258 0.00689043
-3.49117841331 0.00887237
-2.99243943059 0.0101911
-2.49370018439 0.00997199
-1.99496067467 0.00678139
-1.4962209014 0.00349421
-0.997480864553 0.00174063
-0.498740564097 0
0 0.00544758
0.498740827768 0.0468544
0.997481919239 0.139194
1.49622327444 0.209581
1.99496489341 0.230288
2.49370677618 0.251571
2.99244892277 0.268536
3.49119133323 0.343045
3.98993400757 0.440275
4.48867694583 0.52314
4.98742014804 0.602264
5.48616361424 0.673158
5.98490734444 0.699936
6.4836513387 0.739553
6.98239559703 0.772187
7.48114011946 0.821573
7.97988490603 0.872907
8.47862995678 0.927304
8.97737527172 0.954955
9.47612085089 0.983189
9.97486669432 0.993492
10.473612802 1.00758
10.9723591741 1.02417
11.4711058105 1.0317
11.9698527113 1.04357
12.4685998765 1.06797
12.9673473061 1.07363
13.4660950003 1.06064
13.9648429589 1.02043
14.4635911821 0.987592
14.9623396698 0.962686
15.4610884222 0.933712
15.9598374392 0.881697
16.4585867208 0.824824
16.9573362672 0.769943
17.4560860782 0.701803
17.9548361541 0.642895
18.4535864947 0.584536
18.9523371001 0.569452
19.4510879704 0.511586
19.9498391056 0.461739
20.4485905056 0.427978
20.9473421706 0.390056
21.4460941006 0.384502
21.9448462956 0.451482
22.4435987556 0.563959
22.9423514807 0.638958
23.4411044709 0.688044
23.9398577262 0.748825
24.4386112467 0.841331
24.9373650323 0.853773
