-24.9428488616 0.485757
-24.4439980842 0.484993
-23.9451470542 0.484783
-23.4462957716 0.486913
-22.9474442364 0.488361
-22.4485924484 0.486433
-21.9497404078 0.486802
-21.4508881144 0.487938
-20.9520355682 0.490214
-20.4531827692 0.512184
-19.9543297174 0.549787
-19.4554764127 0.597086
-18.9566228552 0.649453
-18.4577690447 0.682281
-17.9589149813 0.716343
-17.4600606649 0.779154
-16.9612060955 0.848584
-16.4623512731 0.887848
-15.9634961977 0.873045
-15.4646408691 0.806541
-14.9657852874 0.725302
-14.4669294526 0.657834
-13.9680733647 0.592379
-13.4692170235 0.561402
-12.9703604291 0.550999
-12.4715035814 0.534973
-11.9726464805 0.559098
-11.4737891263 0.621754
-10.9749315187 0.723215
-10.4760736577 0.776437
-9.97721554338 0.740259
-9.47835717561 0.663713
-8.97949855438 0.565462
-8.48063967968 0.461019
-7.98178055147 0.347769
-7.48292116972 0.230488
-6.98406153441 0.11358
-6.48520164551 0.0494429
-5.98634150298 0.0217702
-5.48748110681 0.00495289
-4.98862045696 0
-4.4897595534 0.00848815
-3.99089839611 0.0216969
-3.49203698506 0.0243133
-2.99317532021 0.0211637
-2.49431340155 0.0375693
-1.99545122905 0.0402406
-1.49658880267 0.0359922
-0.997726122384 0.0419563
-0.498863188171 0.0941717
0 0.172793
0.498863442158 0.235814
0.997727138331 0.314349
1.49659108855 0.373954
1.99545529283 0.375174
2.49431975122 0.315855
2.99318446373 0.235476
3.4920494304 0.169702
3.99091465125 0.160978
4.48978012631 0.165029
4.98864585561 0.163384
5.48751183917 0.172422
5.98637807704 0.207279
6.48524456922 0.283009
6.98411131576 0.41375
7.48297831668 0.562476
7.981845572 0.675463
8.48071308176 0.659548
8.97958084598 0.591477
9.47844886469 0.516516
9.97731713792 0.458661
10.4761856657 0.412256
10.9750544481 0.393615
11.473923485 0.409133
11.9727927766 0.456097
12.4716623228 0.514364
12.9705321238 0.607934
13.4694021794 0.691993
13.9682724898 0.721875
14.467143055 0.705094
14.9660138749 0.699985
15.4648849497 0.705672
15.9637562794 0.710139
16.4626278639 0.775857
16.9614997033 0.899437
17.4603717977 1.01177
17.959244147 1.07275
18.4581167514 1.06414
18.9569896107 0.980697
19.4558627251 0.868655
19.9547360946 0.778741
20.4536097192 0.738518
20.9524835989 0.747737
21.4513577338 0.751531
21.9502321238 0.793591
22.4491067691 0.867882
22.9479816697 0.952418
23.4468568255 0.994355
23.9457322366 0.982505
24.444607903 0.855498
24.9434838248 0.685825
