-24.9352523636 0.23687
-24.4365537996 0.203563
-23.9378549715 0.204277
-23.4391558793 0.202608
-22.9404565228 0.195373
-22.4417569022 0.200505
-21.9430570173 0.199039
-21.4443568682 0.206847
-20.9456564547 0.242617
-20.446955777 0.280212
-19.9482548348 0.31116
-19.4495536283 0.525128
-18.9508521573 0.733445
-18.4521504218 0.893118
-17.9534484219 1.00601
-17.4547461574 0.966252
-16.9560436284 0.920449
-16.4573408348 0.908985
-15.9586377765 0.912819
-15.4599344536 0.93173
-14.961230866 0.928159
-14.4625270137 0.89811
-13.9638228967 0.87242
-13.4651185148 0.867217
-12.9664138682 0.83841
-12.4677089567 0.840301
-11.9690037803 0.872546
-11.470298339 0.861831
-10.9715926327 0.82921
-10.4728866615 0.807666
-9.9741804253 0.811002
-9.47547392403 0.811961
-8.97676715769 0.760091
-8.47806012625 0.63932
-7.97935282968 0.488488
-7.48064526793 0.32915
-6.98193744099 0.185233
-6.48322934882 0.075977
-5.98452099138 0.0525583
-5.48581236865 0.0426542
-4.98710348059 0.0419956
-4.48839432717 0.0530905
-3.98968490836 0.0751489
-3.49097522413 0.113282
-2.99226527444 0.13467
-2.49355505927 0.108346
-1.99484457858 0.0492608
-1.49613383234 0.0113655
-0.997422820517 0.00293655
-0.498711543081 0
0 0.00100447
0.498711808759 0.00167831
0.997423883227 0.00536269
1.49613622344 0.00879424
1.99484882942 0.00968203
2.4935617012 0.004898
2.99227483882 0.0217148
3.49098824232 0.0532194
3.98970191171 0.105728
4.48841584703 0.179916
4.98713004831 0.284186
5.48584451559 0.37595
5.9845592489 0.487811
6.48327424827 0.609195
6.98198951372 0.685265
7.4807050453 0.755074
7.97942084303 0.787423
8.47813690695 0.779537
8.97685323708 0.773494
9.47556983347 0.757134
9.97428669613 0.729504
10.4730038251 0.696454
10.9717212204 0.674264
11.4704388821 0.648785
11.9691568102 0.616379
12.4678750048 0.584453
12.9665934658 0.588363
13.4653121933 0.609729
13.9640311874 0.649789
14.462750448 0.700367
14.9614699752 0.712196
15.460189769 0.674602
15.9589098295 0.64849
16.4576301567 0.634073
16.9563507506 0.610044
17.4550716113 0.610517
17.9537927388 0.63147
18.4525141331 0.69352
18.9512357942 0.77528
19.4499577222 0.851459
19.9486799171 0.850399
20.447402379 0.778098
20.9461251078 0.650151
21.4448481037 0.498876
21.9435713666 0.387119
22.4422948965 0.336801
22.9410186936 0.298921
23.4397427578 0.293811
23.9384670892 0.395236
24.4371916877 0.54559
24.9359165535 0.702923
