-24.942859307 0.826818
-24.4440083223 0.702322
-23.9451570849 0.613203
-23.4463055948 0.552489
-22.9474538521 0.528349
-22.4486018565 0.510728
-21.9497496082 0.50497
-21.4508971071 0.500922
-20.9520443531 0.503518
-20.4531913463 0.507059
-19.9543380866 0.505188
-19.4554845739 0.504844
-18.9566308083 0.50463
-18.4577767898 0.507947
-17.9589225182 0.517196
-17.4600679936 0.533773
-16.9612132159 0.553853
-16.4623581851 0.582826
-15.9635029012 0.556829
-15.4646473642 0.52043
-14.9657915739 0.486871
-14.4669355305 0.480626
-13.9680792339 0.468491
-13.4692226839 0.458639
-12.9703658807 0.45558
-12.4715088242 0.459652
-11.9726515143 0.462531
-11.4737939511 0.464839
-10.9749361344 0.475151
-10.4760780643 0.498976
-9.97721974079 0.539715
-9.47836116376 0.578695
-8.97950233321 0.616802
-8.48064324911 0.554354
-7.98178391145 0.406965
-7.48292432018 0.264867
-6.98406447529 0.183275
-6.48520437674 0.100582
-5.9863440245 0.0364723
-5.48748341856 0.0052748
-4.98862255886 0
-4.48976144541 0.00555505
-3.99090007815 0.0202789
-3.49203845706 0.0450529
-2.99317658213 0.0891821
-2.49431445331 0.140873
-1.99545207058 0.188253
-1.49658943391 0.189704
-0.997726543278 0.216927
-0.498863398651 0.261001
0 0.322825
0.498863652701 0.406331
0.997727559482 0.409069
1.49659172037 0.411193
1.99545613539 0.448288
2.49432080457 0.485065
2.99318572795 0.494668
3.49205090554 0.426408
3.99091633738 0.320034
4.4897820235 0.222751
4.98864796392 0.178116
5.48751415867 0.162136
5.98638060778 0.154277
6.48524731128 0.154751
6.98411426919 0.15413
7.48298148155 0.164727
7.98184894837 0.215598
8.4807166697 0.359368
8.97958464555 0.595461
9.47845287596 0.732717
9.97732136095 0.743716
10.4761901005 0.701781
10.9750590948 0.728031
11.4739283437 0.761902
11.9727978473 0.815844
12.4716676056 0.875525
12.9705376187 0.953074
13.4694078866 0.982376
13.9682784092 0.927691
14.4671491867 0.87757
14.9660202191 0.834598
15.4648915063 0.775979
15.9637630485 0.70218
16.4626348456 0.643723
16.9615068977 0.624459
17.4603792048 0.649506
17.9592517669 0.72164
18.4581245841 0.822152
18.9569976563 0.922137
19.4558709837 0.91282
19.9547445662 0.745298
20.4536184039 0.622992
20.9524924968 0.570886
21.4513668449 0.578287
21.9502414483 0.566941
22.4491163069 0.558517
22.9479914208 0.551626
23.4468667901 0.534871
23.9457424148 0.535831
24.4446182948 0.527016
24.9434944303 0.502011
