-24.9352661831 0.367957
-24.4365673449 0.413725
-23.9378682425 0.438655
-23.4391688759 0.422982
-22.940469245 0.33077
-22.4417693498 0.221428
-21.9430691903 0.173573
-21.4443687664 0.168812
-20.9456680781 0.178516
-20.4469671254 0.20618
-19.9482659082 0.228052
-19.4495644266 0.202622
-18.9508626804 0.198081
-18.4521606697 0.233053
-17.9534583944 0.292097
-17.4547558545 0.371853
-16.9560530499 0.432693
-16.4573499806 0.46043
-15.9586466467 0.484168
-15.459943048 0.509224
-14.9612391845 0.508366
-14.4625350562 0.484262
-13.963830663 0.454421
-13.465126005 0.390189
-12.9664210821 0.336393
-12.4677158942 0.288028
-11.9690104414 0.254314
-11.4703047236 0.271226
-10.9715987407 0.290761
-10.4728924928 0.302399
-9.97418597981 0.289743
-9.47547920166 0.24692
-8.97677215836 0.175927
-8.47806484986 0.0531143
-7.97935727613 0.0169401
-7.48064943715 0
-6.98194133288 0.00530328
-6.4832329633 0.0282664
-5.98452432835 0.0609215
-5.48581542803 0.107581
-4.98710626229 0.173104
-4.4883968311 0.242249
-3.98968713443 0.29694
-3.49097717225 0.33121
-2.99226694453 0.339157
-2.49355645123 0.332093
-1.99484569233 0.30982
-1.49613466778 0.276442
-0.997423377569 0.222119
-0.498711821652 0.150262
0 0.0962845
0.498712087418 0.0767635
0.997424440633 0.0704356
1.49613705968 0.0646857
1.99484994459 0.065883
2.49356309539 0.0746514
2.99227651211 0.108457
3.4909901948 0.166453
3.98970414347 0.222321
4.48841835816 0.229952
4.9871328389 0.270872
5.48584758573 0.31381
5.98456259868 0.329007
6.48327787777 0.328814
6.98199342304 0.303472
7.48070923452 0.258176
7.97942531224 0.275712
8.47814165624 0.323437
8.97685826654 0.357533
9.47557514318 0.3925
9.9742922862 0.458275
10.4730096956 0.525963
10.9717273715 0.647192
11.4704453138 0.787014
11.9691635226 0.975168
12.4678819979 1.10143
12.9666007398 1.17907
13.4653197483 1.23131
13.9640390234 1.20842
14.4627585651 1.10336
14.9614783736 1.01062
15.4601984488 0.952474
15.9589187907 0.898062
16.4576393994 0.837328
16.9563602749 0.793906
17.4550814172 0.778291
17.9538028264 0.777452
18.4525245026 0.775577
18.9512464457 0.761676
19.4499686557 0.70352
19.9486911327 0.642591
20.4474138768 0.576077
20.946136888 0.531917
21.4448601662 0.513171
21.9435837116 0.495763
22.4423075241 0.533667
22.9410316038 0.554935
23.4397559508 0.596762
23.9384805649 0.56861
24.4372054464 0.437809
24.9359305952 0.351851
