-24.9303706791 0.376726
-24.4317699047 0.378722
-23.9331688599 0.363024
-23.4345675446 0.34212
-22.9359659588 0.340928
-22.4373641025 0.334893
-21.9387619756 0.317395
-21.4401595781 0.310138
-20.9415569099 0.318317
-20.442953971 0.311333
-19.9443507615 0.28852
-19.4457472812 0.274744
-18.9471435301 0.267383
-18.4485395082 0.290244
-17.9499352155 0.292826
-17.4513306518 0.293948
-16.9527258173 0.285215
-16.4541207118 0.285866
-15.9555153353 0.282528
-15.4569096878 0.279049
-14.9583037692 0.281035
-14.4596975795 0.28945
-13.9610911187 0.316806
-13.4624843868 0.36173
-12.9638773836 0.418929
-12.4652701093 0.474697
-11.9666625636 0.54369
-11.4680547467 0.566
-10.9694466584 0.526844
-10.4708382988 0.465255
-9.97222966776 0.390685
-9.47362076529 0.340313
-8.97501159134 0.307587
-8.4764021459 0.270326
-7.97779242892 0.198597
-7.47918244036 0.129946
-6.9805721802 0.0711408
-6.48196164839 0.0462633
-5.98335084491 0.0418993
-5.48473976973 0.0386813
-4.98612842279 0.0354617
-4.48751680408 0.0345957
-3.98890491356 0.0327386
-3.49029275119 0.0308965
-2.99168031693 0.0268986
-2.49306761077 0.0215849
-1.99445463265 0.0183828
-1.49584138255 0.0166452
-0.99722786043 0.0155337
-0.498614066258 0.0133036
0 0.0114569
0.498614338379 0.0107751
0.997228948912 0.0126695
1.49584383164 0
1.99445898658 0.0132599
2.49307441379 0.0409752
2.99169011328 0.121074
3.4903060851 0.196128
3.98892232929 0.265896
4.48753884586 0.335876
4.98615563487 0.408413
5.48477269633 0.443274
5.9833900303 0.440269
6.48200763679 0.445103
6.98062551585 0.455764
7.47924366751 0.443791
7.9778620918 0.419126
8.47648078876 0.401656
8.97509975842 0.376924
9.47371900081 0.302072
9.97233851598 0.248954
10.470958304 0.217439
10.9695783648 0.213492
11.4681986984 0.212548
11.966819305 0.226878
12.4654401845 0.259296
12.964061337 0.30107
13.4626827626 0.334515
13.9613044611 0.366902
14.4599264327 0.38881
14.9585486775 0.404784
15.4571711953 0.40772
15.9557939864 0.409758
16.4544170507 0.416367
16.9530403882 0.442024
17.451663999 0.462359
17.9502878831 0.475921
18.4489120405 0.496021
18.9475364714 0.530428
19.4461611756 0.568453
19.9447861533 0.61364
20.4434114045 0.641967
20.9420369292 0.665551
21.4406627275 0.67612
21.9392887993 0.691517
22.4379151448 0.719556
22.9365417639 0.752727
23.4351686567 0.787271
23.9337958233 0.821304
24.4324232635 0.844305
24.9310509776 0.854622
