-24.9908216454 0.336399
-24.4910090643 0.32345
-23.9911963261 0.320064
-23.4913834307 0.327101
-22.9915703781 0.33923
-22.4917571684 0.331684
-21.9919438016 0.311702
-21.4921302775 0.297338
-20.9923165963 0.291312
-20.492502758 0.292507
-19.9926887624 0.294546
-19.4928746097 0.29175
-18.9930602997 0.289615
-18.4932458326 0.286707
-17.9934312083 0.284727
-17.4936164268 0.292413
-16.9938014881 0.307059
-16.4939863921 0.328856
-15.994171139 0.331495
-15.4943557286 0.304063
-14.994540161 0.264544
-14.4947244361 0.233959
-13.9949085541 0.214865
-13.4950925147 0.197364
-12.9952763182 0.180336
-12.4954599644 0.167563
-11.9956434533 0.167025
-11.495826785 0.162903
-10.9960099594 0.158013
-10.4961929766 0.17155
-9.99637583646 0.173624
-9.49655853907 0.173088
-8.99674108439 0.176632
-8.49692347243 0.169049
-7.99710570318 0.182108
-7.49728777663 0.1836
-6.99746969279 0.202497
-6.49765145164 0.225693
-5.99783305318 0.199144
-5.49801449741 0.127435
-4.99819578432 0.0624498
-4.49837691391 0.0352696
-3.99855788618 0.0271633
-3.49873870111 0.02689
-2.99891935871 0.0276335
-2.49909985897 0.0311473
-1.99928020188 0.0288049
-1.49946038744 0.0237209
-0.999640415656 0.0194867
-0.499820286509 0.0164319
0 0.0123969
0.499820443876 0.0106462
0.999641045125 0.0104145
1.49946180375 0.0112815
1.99928271975 0.015185
2.49910379314 0.0172409
2.99892502392 0.0266634
3.49874641209 0.0555109
3.99856795766 0.0863141
4.49838966064 0.106932
4.99821152102 0.123195
5.49803353881 0.166372
5.99785571402 0.225815
6.49767804664 0.278957
6.9975005367 0.32425
7.49732318418 0.356174
7.9971459891 0.372463
8.49696895145 0.382006
8.99679207125 0.385563
9.49661534849 0.410632
9.99643878319 0.443131
10.4962623753 0.456559
10.996086125 0.423697
11.495910032 0.3963
11.9957340966 0.345495
12.4955583186 0.265074
12.9953826981 0.17571
13.4952072351 0.128827
13.9950319295 0.0736195
14.4948567815 0.0899541
14.9946817909 0.104423
15.4945069579 0.105832
15.9943322824 0.128177
16.4941577643 0.104316
16.9939834038 0.0708655
17.4938092008 0.0437
17.9936351553 0.0433827
18.4934612674 0.0532932
18.9932875369 0.0418081
19.493113964 0.0279771
19.9929405487 0.0179565
20.4927672909 0.0103312
20.9925941906 0.0085384
21.4924212479 0
21.9922484627 0.0104421
22.4920758352 0.027241
22.9919033651 0.0497326
23.4917310527 0.052399
23.9915588978 0.0569996
24.4913869005 0.0669508
24.9912150607 0.0733105
