-24.9908859324 0.860635
-24.4910720716 0.789416
-23.9912580533 0.741884
-23.4914438777 0.717883
-22.9916295447 0.700781
-22.4918150542 0.676815
-21.9920004064 0.659027
-21.4921856011 0.643856
-20.9923706385 0.609292
-20.4925555184 0.583527
-19.9927402409 0.568747
-19.492924806 0.5688
-18.9931092136 0.558262
-18.4932934638 0.557131
-17.9934775565 0.541105
-17.4936614918 0.505683
-16.9938452697 0.471537
-16.4940288901 0.43995
-15.994212353 0.419176
-15.4943956585 0.410777
-14.9945788065 0.397556
-14.494761797 0.387196
-13.99494463 0.376665
-13.4951273056 0.360428
-12.9953098236 0.366908
-12.4954921842 0.382002
-11.9956743873 0.383864
-11.4958564329 0.381275
-10.9960383209 0.412587
-10.4962200515 0.453655
-9.99640162453 0.476174
-9.49658304005 0.496265
-8.99676429804 0.48983
-8.49694539851 0.464076
-7.99712634144 0.439387
-7.49730712683 0.420679
-6.99748775468 0.396793
-6.49766822498 0.380997
-5.99784853772 0.372243
-5.49802869292 0.370503
-4.99820869055 0.387395
-4.49838853061 0.379552
-3.99856821311 0.287112
-3.49874773803 0.180455
-2.99892710537 0.0923464
-2.49910631513 0.0435488
-1.99928536729 0.0200002
-1.49946426187 0.0142361
-0.99964299885 0.0119913
-0.499821578228 0.0116127
0 0.0119558
0.499821735839 0.00663146
0.999643629292 0
1.49946568036 0.0107417
1.99928788906 0.0276347
2.49911025538 0.0444506
2.99893277934 0.0389966
3.49875546094 0.0418316
3.99857830017 0.0847484
4.49840129705 0.168823
4.99822445159 0.194056
5.49804776377 0.210714
5.99787123362 0.255104
6.49769486113 0.32121
6.99751864631 0.47546
7.49734258916 0.698548
7.99716668969 0.891679
8.49699094789 0.949189
8.99681536379 0.995632
9.49663993737 1.04445
9.99646466865 1.00586
10.4962895576 1.0441
10.9961146043 1.06971
11.4959398087 1.04177
11.9957651708 1.01257
12.4955906906 0.998442
12.9954163681 0.981634
13.4952422034 1.00288
13.9950681964 0.991298
14.4948943471 0.970704
14.9947206556 0.917048
15.4945471218 0.841242
15.9943737457 0.772768
16.4942005274 0.681764
16.9940274669 0.622447
17.4938545641 0.57947
17.9936818191 0.55714
18.4935092318 0.546192
18.9933368024 0.53741
19.4931645307 0.529533
19.9929924167 0.524246
20.4928204606 0.540673
20.9926486623 0.581499
21.4924770217 0.624249
21.992305539 0.652435
22.492134214 0.657985
22.9919630469 0.640866
23.4917920375 0.650574
23.991621186 0.652595
24.4914504923 0.641929
24.9912799565 0.62712
