-24.9299096911 0.730479
-24.4313181702 0.777885
-23.9327263774 0.812437
-23.4341343128 0.822954
-22.9355419763 0.861799
-22.4369493679 0.918457
-21.9383564876 0.956866
-21.4397633352 0.87433
-20.9411699109 0.763454
-20.4425762145 0.656268
-19.943982246 0.608372
-19.4453880054 0.582793
-18.9467934927 0.580493
-18.4481987078 0.56959
-17.9496036506 0.565437
-17.4510083212 0.567179
-16.9524127195 0.572705
-16.4538168454 0.574768
-15.955220699 0.582188
-15.4566242802 0.589515
-14.958027589 0.587174
-14.4594306253 0.606744
-13.9608333891 0.617643
-13.4622358804 0.64032
-12.9636380991 0.649117
-12.4650400452 0.651752
-11.9664417186 0.636859
-11.4678431194 0.609879
-10.9692442475 0.607053
-10.4706451028 0.623794
-9.97204568539 0.635324
-9.47344599513 0.613325
-8.97484603203 0.589348
-8.47624579604 0.565713
-7.97764528714 0.558709
-7.47904450529 0.577567
-6.98044345045 0.581682
-6.4818421226 0.582461
-5.98324052169 0.560678
-5.48463864769 0.493055
-4.98603650057 0.388112
-4.48743408029 0.265898
-3.98883138682 0.152337
-3.49022842012 0.0804808
-2.99162518016 0.0413768
-2.49302166691 0.0305864
-1.99441788032 0.0313427
-1.49581382037 0.0301006
-0.997209487028 0.0268976
-0.498604880248 0.0236448
0 0.0198623
0.49860515375 0.0133031
0.997210581037 0.00615489
1.49581628189 0
1.99442225636 0.00156607
2.49302850446 0.0122208
2.99163502624 0.0379297
3.49024182172 0.0553334
3.98884889095 0.0717145
4.48745623396 0.0833697
4.98606385078 0.0978941
5.48467174144 0.116611
5.98327990599 0.144285
6.48188834445 0.180303
6.98049705686 0.231259
7.47910604325 0.272324
7.97771530366 0.309658
8.47632483812 0.340661
8.97493464667 0.361118
9.47354472934 0.382116
9.97215508617 0.403509
10.4707657172 0.430206
10.9693766224 0.46355
11.4679878019 0.500237
11.9665992557 0.54996
12.4652109838 0.611321
12.9638229863 0.644215
13.4624352632 0.623384
13.9610478145 0.573042
14.4596606402 0.503078
14.9582737405 0.470868
15.4568871153 0.473379
15.9555007647 0.492687
16.4541146886 0.512307
16.9527288872 0.528121
17.4513433605 0.525387
17.9499581085 0.519738
18.4485731312 0.541788
18.9471884287 0.577087
19.4458040009 0.620214
19.9444198481 0.614466
20.4430359701 0.571909
20.941652367 0.548853
21.4402690388 0.53661
21.9388859857 0.540498
22.4375032075 0.553167
22.9361207044 0.577092
23.4347384764 0.545065
23.9333565234 0.501073
24.4319748457 0.470345
24.9305934431 0.439793
