-24.9299075357 0.851274
-24.4313160575 0.773588
-23.9327243075 0.748155
-23.4341322857 0.734267
-22.935539992 0.741
-22.4369474264 0.769399
-21.9383545889 0.811544
-21.4397614794 0.858911
-20.9411680979 0.903538
-20.4425744444 0.944229
-19.9439805188 0.995065
-19.4453863211 0.999483
-18.9467918513 0.995191
-18.4481971093 0.999825
-17.9496020951 0.956993
-17.4510068086 0.935786
-16.9524112499 0.945835
-16.4538154188 0.965135
-15.9552193154 0.998673
-15.4566229397 1.01508
-14.9580262915 1.02572
-14.4594293708 1.06722
-13.9608321777 1.13687
-13.462234712 1.184
-12.9636369738 1.21282
-12.465038963 1.2312
-11.9664406796 1.22513
-11.4678421235 1.18253
-10.9692432947 1.1398
-10.4706441932 1.11872
-9.97204481893 1.01146
-9.47344517185 0.861455
-8.97484525195 0.689451
-8.47624505918 0.535056
-7.97764459351 0.400203
-7.4790438549 0.291133
-6.98044284333 0.19671
-6.48184155874 0.121465
-5.98324000112 0.0329697
-5.48463817042 0.007613
-4.98603606662 0
-4.48743368967 0.00501717
-3.98883103954 0.0121222
-3.4902281162 0.0180845
-2.99162491962 0.0229411
-2.49302144975 0.0283253
-1.99441770657 0.0358753
-1.49581369004 0.0490503
-0.997209400123 0.128869
-0.498604836788 0.263341
0 0.410773
0.498605110276 0.557258
0.997210494075 0.660158
1.49581615143 0.758052
1.99442208238 0.847787
2.49302828695 0.919332
2.99163476518 0.98512
3.49024151711 1.04485
3.98884854276 1.01363
4.48745584218 0.922527
4.9860634154 0.841066
5.48467126245 0.754954
5.98327938336 0.670358
6.48188777817 0.582944
6.98049644692 0.503444
7.47910538964 0.478617
7.97771460637 0.482839
8.47632409713 0.49351
8.97493386196 0.502038
9.4735439009 0.515519
9.97215421398 0.51962
10.4707648012 0.514507
10.9693756627 0.509269
11.4679867984 0.515715
11.9665982084 0.537309
12.4652098927 0.598547
12.9638218513 0.669152
13.4624340844 0.700565
13.9610465918 0.717065
14.4596593737 0.688857
14.9582724301 0.666998
15.456885761 0.653049
15.9554993664 0.637866
16.4541132465 0.622964
16.9527274011 0.615648
17.4513418304 0.621771
17.9499565344 0.624014
18.4485715131 0.631549
18.9471867666 0.656535
19.4458022949 0.676646
19.944418098 0.691496
20.4430341759 0.705797
20.9416505288 0.736547
21.4402671566 0.772386
21.9388840593 0.826287
22.437501237 0.865392
22.9361186898 0.877078
23.4347364177 0.864546
23.9333544206 0.847707
24.4319726987 0.862691
24.9305912519 0.894057
