-24.990800231 0.569505
-24.4909880762 0.525582
-23.9911757643 0.475605
-23.4913632954 0.407092
-22.9915506694 0.33602
-22.4917378863 0.289741
-21.9919249461 0.284721
-21.4921118489 0.301554
-20.9922985946 0.328383
-20.4924851831 0.361526
-19.9926716146 0.408507
-19.492857889 0.476349
-18.9930440062 0.496167
-18.4932299664 0.472341
-17.9934157694 0.476108
-17.4936014153 0.563565
-16.9937869041 0.597944
-16.4939722358 0.603904
-15.9941574103 0.573066
-15.4943424277 0.578015
-14.9945272879 0.579121
-14.494711991 0.589269
-13.9948965369 0.537505
-13.4950809257 0.410548
-12.9952651573 0.310802
-12.4954492317 0.234365
-11.995633149 0.193243
-11.4958169091 0.164299
-10.996000512 0.144399
-10.4961839577 0.147352
-9.99636724628 0.150415
-9.49655037762 0.153383
-8.99673335176 0.148579
-8.4969161687 0.150295
-7.99709882843 0.135969
-7.49728133094 0.125864
-6.99746367624 0.108894
-6.49764586432 0.0824751
-5.99782789517 0.0653172
-5.49800976878 0.0341116
-4.99819148516 0.00367891
-4.49837304431 0.00432336
-3.9985544462 0.00943963
-3.49873569085 0.011072
-2.99891677824 0.0150498
-2.49909770837 0.0194002
-1.99927848124 0.0209718
-1.49945909684 0.019398
-0.999639555175 0.0159867
-0.499819856229 0.0120593
0 0.0105704
0.499820013514 0.00895317
0.999640184317 0.0056593
1.49946051242 0.00320336
1.99928099781 0.0059395
2.49910164052 0.0144772
2.99892244053 0.0327471
3.49874339785 0.0597337
3.99856451249 0.097019
4.49838578445 0.12733
4.99820721374 0.134592
5.49802880035 0.146611
5.99785054431 0.13356
6.4976724456 0.0723359
6.99749450424 0.0605795
7.49731672022 0.0904397
7.99713909356 0.115916
8.49696162425 0.131426
8.99678431231 0.145141
9.49660715773 0.164622
9.99643016052 0.176461
10.4962533207 0.120619
10.9960766382 0.0650754
11.4959001132 0.0333404
11.9957237455 0.0224042
12.4955475352 0.0256516
12.9953714823 0.022299
13.4951955868 0.0139664
13.9950198487 0.00691645
14.4948442681 0
14.9946688448 0.000969434
15.494493579 0.00473466
15.9943184705 0.0131916
16.4941435195 0.0239011
16.993968726 0.0346232
17.4937940899 0.0407627
17.9936196112 0.033582
18.49344529 0.0264492
18.9932711262 0.0286073
19.4930971198 0.0334935
19.992923271 0.0240856
20.4927495796 0.0211079
20.9925760456 0.0740229
21.4924026691 0.122349
21.9922294501 0.176518
22.4920563886 0.282973
22.9918834846 0.395735
23.491710738 0.532065
23.991538149 0.571038
24.4913657174 0.578007
24.9911934434 0.590255
