-24.9343606132 0.744046
-24.4356799019 0.757365
-23.9369989258 0.788662
-23.4383176848 0.857087
-22.9396361789 0.858893
-22.4409544081 0.836462
-21.9422723723 0.840067
-21.4435900716 0.832406
-20.9449075058 0.817578
-20.446224675 0.757819
-19.9475415791 0.671919
-19.4488582181 0.648016
-18.9501745919 0.640428
-18.4514907005 0.664628
-17.952806544 0.664169
-17.4541221221 0.670264
-16.955437435 0.703435
-16.4567524826 0.753262
-15.9580672649 0.80096
-15.4593817817 0.824229
-14.9606960332 0.843748
-14.4620100192 0.865746
-13.9633237397 0.892526
-13.4646371947 0.904338
-12.9659503842 0.899305
-12.4672633081 0.870243
-11.9685759664 0.824058
-11.4698883591 0.834335
-10.9712004861 0.853257
-10.4725123474 0.848427
-9.97382394293 0.821946
-9.47513527273 0.757054
-8.97644633672 0.664223
-8.47775713488 0.573274
-7.97906766718 0.484794
-7.48037793358 0.456029
-6.98168793405 0.366424
-6.48299766856 0.227859
-5.98430713708 0.107124
-5.48561633957 0.0534267
-4.986925276 0.0279077
-4.48823394634 0.0197596
-3.98954235056 0.0097298
-3.49085048862 0.0016194
-2.9921583605 0.0131378
-2.49346596615 0.00912824
-1.99477330555 0.00158266
-1.49608037867 0
-0.997387185475 0.0397812
-0.498693725928 0.106963
0 0.225515
0.498693992341 0.359546
0.997388251129 0.420806
1.49608277639 0.470745
1.99477756817 0.518116
2.49347262649 0.589179
2.99216795138 0.694689
3.49086354288 0.779936
3.98955940102 0.79783
4.48825552583 0.801344
4.98695191734 0.824682
5.48564857559 0.835155
5.98434550061 0.827795
6.48304269243 0.799532
6.98174015108 0.744972
7.48043787659 0.661756
7.97913586901 0.513743
8.47783412835 0.457155
8.97653265465 0.425995
9.47523144794 0.405885
9.97393050826 0.400893
10.4726298356 0.392384
10.9713294301 0.395657
11.4700292917 0.403882
11.9687294204 0.416731
12.4674298164 0.440119
12.9661304795 0.492901
13.4648314099 0.555883
13.9635326076 0.60804
14.4622340726 0.647164
14.9609358049 0.67337
15.4596378046 0.689896
15.9583400717 0.660244
16.4570426063 0.606323
16.9557454083 0.564033
17.4544484779 0.552061
17.953151815 0.569582
18.4518554196 0.600296
18.9505592919 0.628343
19.4492634318 0.660232
19.9479678394 0.67521
20.4466725146 0.687535
20.9453774576 0.682134
21.4440826684 0.66148
21.9427881469 0.649126
22.4414938933 0.627915
22.9401999075 0.608816
23.4389061896 0.604338
23.9376127397 0.601666
24.4363195577 0.607029
24.9350266436 0.619671
