-24.9479273565 0.772808
-24.4489748039 0.847271
-23.9500220071 0.889095
-23.4510689659 0.904311
-22.9521156805 0.914411
-22.4531621507 0.941984
-21.9542083765 0.994983
-21.4552543579 1.05406
-20.956300095 1.11747
-20.4573455876 1.16444
-19.9583908357 1.17394
-19.4594358393 1.16212
-18.9604805984 1.10614
-18.4615251129 1.02795
-17.9625693829 0.970776
-17.4636134083 0.898223
-16.9646571891 0.781125
-16.4657007252 0.604369
-15.9667440166 0.421998
-15.4677870633 0.301315
-14.9688298654 0.32286
-14.4698724226 0.381966
-13.9709147351 0.473396
-13.4719568028 0.548892
-12.9729986256 0.610312
-12.4740402036 0.645031
-11.9750815367 0.649487
-11.4761226249 0.715356
-10.9771634682 0.713629
-10.4782040665 0.695398
-9.97924441979 0.650137
-9.4802845281 0.577847
-8.98132439138 0.500384
-8.4823640096 0.428538
-7.98340338273 0.377178
-7.48444251074 0.364194
-6.98548139362 0.375104
-6.48652003133 0.370267
-5.98755842386 0.329861
-5.48859657117 0.28622
-4.98963447323 0.22621
-4.49067213003 0.15325
-3.99170954154 0.092039
-3.49274670773 0.0504064
-2.99378362858 0.0243166
-2.49482030405 0.0110335
-1.99585673414 0.00571835
-1.4968929188 0.0135087
-0.997928858012 0.0185055
-0.498964551755 0.00793717
0 0
0.498964797278 0.0188189
0.997929840103 0.0700966
1.4968951285 0.0666936
1.9958606625 0.0610951
2.49482644213 0.0747568
2.99379246741 0.122132
3.49275873836 0.202473
3.99172525502 0.27485
4.4906920174 0.316108
4.98965902553 0.343845
5.48862627945 0.3653
5.98759377917 0.371301
6.48656152472 0.357387
6.98552951612 0.33013
7.48449775341 0.287309
7.9834662366 0.253752
8.48243496572 0.250392
8.9814039408 0.2752
9.48037316186 0.321687
9.97934262893 0.378896
10.478312342 0.454705
10.9772823012 0.534596
11.4762525064 0.609998
11.9752229578 0.68048
12.4741936553 0.739763
12.973164599 0.783753
13.4721357888 0.806735
13.9711072249 0.80907
14.4700789071 0.703334
14.9690508357 0.581397
15.4680230105 0.514563
15.9669954317 0.477732
16.4659680992 0.446364
16.9649410131 0.445421
17.4639141733 0.4442
17.96288758 0.426732
18.4618612331 0.435587
18.9608351326 0.473793
19.4598092787 0.517212
19.9587836713 0.55189
20.4577583104 0.576781
20.9567331961 0.595064
21.4557083284 0.610522
21.9546837073 0.624848
22.4536593328 0.650711
22.952635205 0.708579
23.4516113239 0.777509
23.9505876895 0.779805
24.4495643019 0.700876
24.9485411611 0.565854
