-24.9478900113 0.912086
-24.4489382001 0.936577
-23.949986145 1.02212
-23.4510338457 1.11514
-22.9520813024 1.1843
-22.453128515 1.19667
-21.9541754834 1.12679
-21.4552222076 1.07181
-20.9562686877 1.02914
-20.4573149235 1.00873
-19.9583609151 1.04856
-19.4594066624 1.10494
-18.9604521654 1.16532
-18.4614974241 1.1752
-17.9625424384 1.1253
-17.4635872084 1.05954
-16.9646317339 1.00385
-16.4656760151 0.992882
-15.9667200517 1.01769
-15.4677638439 1.08145
-14.9688073916 1.13801
-14.4698506948 1.08685
-13.9708937534 1.04898
-13.4719365674 1.03457
-12.9729791368 1.03469
-12.4740214616 1.06429
-11.9750635417 1.06966
-11.4761053772 1.04703
-10.9771469679 1.03598
-10.4781883139 1.00436
-9.97922941513 0.888147
-9.48027027157 0.794228
-8.98131088319 0.725539
-8.48235124998 0.69454
-7.9833913719 0.712961
-7.48443124893 0.723922
-6.98547088105 0.688814
-6.48651026822 0.562797
-5.98754941042 0.384889
-5.48858830763 0.211255
-4.98962695982 0.0846328
-4.49066536697 0.034055
-3.99170352904 0.021485
-3.49274144602 0.0191522
-2.99377911787 0.019072
-2.49481654458 0.0179109
-1.99585372611 0.0168974
-1.49689066245 0.0129311
-0.997927353557 0.00504447
-0.498963799417 0
0 0.000652237
0.498964044718 0.00516184
0.997928334764 0.00919894
1.49689287016 0.0198819
1.99585765094 0.0361478
2.49482267712 0.0772727
2.99378794873 0.167128
3.49275346579 0.267203
3.99171922834 0.325061
4.49068523639 0.331924
4.98965148998 0.278422
5.48861798912 0.189549
5.98758473384 0.180687
6.48655172418 0.218467
6.98551896015 0.26976
7.48448644177 0.28789
7.98345416908 0.297385
8.48242214211 0.331537
8.98139036087 0.34843
9.48035882539 0.306204
9.97932753569 0.188155
10.4782964918 0.102753
10.9772656938 0.0630371
11.4762351416 0.0595585
11.9752048353 0.051936
12.4741747749 0.0675855
12.9731449605 0.117732
13.472115392 0.211504
13.9710860696 0.307252
14.4700569931 0.384592
14.9690281627 0.454202
15.4679995783 0.517673
15.9669712401 0.551569
16.4659431479 0.553381
16.9649153019 0.578025
17.4638877021 0.790302
17.9628603485 0.940551
18.461833241 0.998376
18.9608063799 0.917905
19.459779765 0.798739
19.9587533964 0.630952
20.4577272741 0.46186
20.9567013982 0.335698
21.4556757686 0.306006
21.9546503854 0.321512
22.4536252487 0.348828
22.9526003584 0.384622
23.4515757146 0.424511
23.9505513172 0.486561
24.4495271664 0.543092
24.9485032622 0.558516
