-24.9367208437 0.745263
-24.4379928639 0.738212
-23.9392646218 0.710943
-23.4405361175 0.681139
-22.9418073509 0.69331
-22.4430783219 0.709216
-21.9443490306 0.705638
-21.4456194769 0.704535
-20.9468896608 0.723652
-20.4481595822 0.750988
-19.9494292412 0.781243
-19.4506986376 0.783547
-18.9519677714 0.770402
-18.4532366427 0.760941
-17.9545052514 0.746917
-17.4557735974 0.752291
-16.9570416808 0.757235
-16.4583095014 0.731341
-15.9595770593 0.639667
-15.4608443545 0.581388
-14.9621113868 0.553857
-14.4633781563 0.526732
-13.964644663 0.505757
-13.4659109067 0.498654
-12.9671768876 0.490468
-12.4684426054 0.481225
-11.9697080603 0.482869
-11.4709732522 0.483265
-10.972238181 0.48203
-10.4735028467 0.483032
-9.97476724934 0.487412
-9.47603138881 0.495955
-8.97729526511 0.505639
-8.47855887821 0.518739
-7.97982222806 0.538199
-7.48108531465 0.559228
-6.98234813794 0.550733
-6.48361069789 0.507941
-5.98487299449 0.457536
-5.48613502769 0.388728
-4.98739679746 0.30875
-4.48865830378 0.228036
-3.98991954661 0.144852
-3.49118052593 0.0707097
-2.99244124169 0.0323969
-2.49370169388 0.0152401
-1.99496188245 0.0104913
-1.49622180738 0.0124917
-0.997481468635 0.0117799
-0.498740866186 0.0113244
0 0.0088858
0.498741129952 0.0046741
0.997482523703 0
1.49622418128 0.00292974
1.99496610272 0.00407499
2.49370828806 0.0140838
2.99245073731 0.0278318
3.49119345052 0.0550936
3.98993642771 0.11464
4.48867966892 0.150143
4.98742317418 0.182383
5.48616694351 0.216228
5.98491097696 0.260258
6.48365527454 0.303429
6.98239983629 0.346146
7.48114466225 0.395482
7.97988975244 0.447858
8.47863510689 0.488499
8.97738072564 0.521905
9.47612660871 0.555302
9.97487275614 0.591464
10.473619168 0.649348
10.9723658442 0.708707
11.4711127849 0.773271
11.96985999 0.824013
12.4686074597 0.860198
12.9673551939 0.891805
13.4661031927 0.937067
13.9648514561 0.982612
14.4635999842 1.01915
14.9623487769 1.0283
15.4610978343 1.02919
15.9598471564 1.02916
16.4585967433 1.02751
16.957346595 1.01894
17.4560967115 1.00262
17.9548470928 1.02892
18.453597739 1.07243
18.9523486502 1.08576
19.4510998263 1.07281
19.9498512673 1.04195
20.4486029734 0.985464
20.9473549445 0.9314
21.4461071807 0.885328
21.944859682 0.832831
22.4436124484 0.7842
22.9423654799 0.752807
23.4411187767 0.719346
23.9398723386 0.714088
24.4386261659 0.710274
24.9373802584 0.711876
