-24.9908430671 0.305751
-24.4910300596 0.301832
-23.9912168948 0.299298
-23.4914035728 0.315385
-22.9915900936 0.325789
-22.4917764571 0.323138
-21.9919626634 0.321738
-21.4921487125 0.302881
-20.9923346043 0.287171
-20.4925203388 0.277843
-19.9927059161 0.271132
-19.4928913361 0.260848
-18.9930765988 0.264507
-18.4932617043 0.264591
-17.9934466525 0.26748
-17.4936314434 0.275378
-16.993816077 0.28189
-16.4940005533 0.297641
-15.9941848723 0.315015
-15.494369034 0.329522
-14.9945530384 0.317471
-14.4947368855 0.298932
-13.9949205753 0.287353
-13.4951041078 0.29415
-12.9952874829 0.327103
-12.4954707007 0.362335
-11.9956537612 0.385131
-11.4958366643 0.394629
-10.9960194101 0.393903
-10.4962019985 0.390637
-9.99638442957 0.392122
-9.49656670329 0.403412
-8.99674881965 0.39939
-8.49693077865 0.403911
-7.99711258027 0.409379
-7.49729422451 0.417826
-6.99747571138 0.399842
-6.49765704086 0.356153
-5.99783821295 0.296134
-5.49801922765 0.197659
-4.99820008494 0.125645
-4.49838078484 0.0777195
-3.99856132732 0.0410805
-3.4987417124 0.0136447
-2.99892194006 0.00914683
-2.49910201029 0.0115439
-1.9992819231 0.00965928
-1.49946167848 0.00500364
-0.99964127643 0.000467562
-0.499820716936 0
0 0.00301323
0.499820874385 0.00818154
0.999641906223 0.0150959
1.49946309552 0.0137959
1.99928444227 0.0275285
2.4991059465 0.0966699
2.99892760819 0.211779
3.49874942736 0.289156
3.998571404 0.372084
4.49839353813 0.368647
4.99821582975 0.312773
5.49803827886 0.29277
5.99786088547 0.296244
6.49768364958 0.331716
6.9975065712 0.3975
7.49732965032 0.456721
7.99715288697 0.494642
8.49697628113 0.524645
8.99679983281 0.595849
9.49662354202 0.614202
9.99644740877 0.596533
10.496271433 0.576139
10.9960956149 0.551887
11.4959199542 0.522558
11.9957444512 0.482277
12.4955691056 0.441598
12.9953939177 0.411175
13.4952188873 0.391849
13.9950440144 0.398029
14.4948692992 0.412164
14.9946947415 0.417323
15.4945203414 0.403032
15.9943460988 0.386093
16.4941720139 0.382671
16.9939980866 0.372535
17.4938243168 0.37907
17.9936507047 0.375138
18.4934772501 0.358804
18.9933039532 0.35174
19.4931308139 0.31827
19.9929578322 0.269345
20.4927850082 0.237428
20.9926123417 0.22603
21.4924398329 0.189834
21.9922674818 0.145727
22.4920952882 0.105397
22.9919232524 0.0883329
23.4917513741 0.0531671
23.9915796536 0.045754
24.4914080906 0.044715
24.9912366854 0.0459549
