-24.9312649531 0.934879
-24.4326462771 0.802147
-23.9340273314 0.768365
-23.4354081158 0.738906
-22.9367886304 0.743448
-22.438168875 0.77049
-21.9395488498 0.802495
-21.4409285546 0.849817
-20.9423079894 0.898173
-20.4436871542 0.951017
-19.9450660489 1.01049
-19.4464446735 1.01311
-18.9478230281 1.01403
-18.4492011124 1.0081
-17.9505789266 0.958582
-17.4519564705 0.951822
-16.9533337441 0.981074
-16.4547107475 1.02396
-15.9560874805 1.06429
-15.4574639432 1.07692
-14.9588401355 1.08042
-14.4602160573 1.11047
-13.9615917087 1.15235
-13.4629670895 1.1822
-12.9643421999 1.19457
-12.4657170397 1.19041
-11.9670916088 1.1654
-11.4684659073 1.12835
-10.9698399352 1.08603
-10.4712136924 1.02353
-9.97258717878 0.903573
-9.47396039443 0.747086
-8.97533333927 0.554599
-8.47670601327 0.396513
-7.97807841639 0.274816
-7.47945054862 0.169457
-6.98082240989 0.0867523
-6.4821940002 0.0290709
-5.98356531949 0.026605
-5.48493636774 0.0190389
-4.98630714492 0.010686
-4.48767765098 0
-3.9890478859 0.000661763
-3.49041784964 0.00891822
-2.99178754217 0.0341283
-2.49315696345 0.0908297
-1.99452611346 0.171479
-1.49589499215 0.248794
-0.997263599491 0.330926
-0.498631935453 0.440609
0 0.56346
0.498632206901 0.629046
0.997264685285 0.657584
1.49589743519 0.655202
1.99453045663 0.642181
2.49316374967 0.663457
2.99179731432 0.674109
3.49043115062 0.683923
3.98906525861 0.675765
4.48769963831 0.665644
4.98633428977 0.652906
5.48496921301 0.635911
5.98360440808 0.618195
6.48223987499 0.606989
6.9808756138 0.625319
7.47951162452 0.642213
7.9781479072 0.520385
8.47678446187 0.374975
8.97542128856 0.248667
9.4740583873 0.233827
9.97269575814 0.225131
10.4713334011 0.205653
10.9699713162 0.192607
11.4686095035 0.193566
11.967247963 0.217884
12.4658866948 0.318771
12.9645256989 0.460169
13.4631649753 0.539701
13.961804524 0.58357
14.4604443452 0.603302
14.9590844388 0.610452
15.4577248048 0.607443
15.9563654433 0.625646
16.4550063544 0.698741
16.953647538 0.790695
17.4522889942 0.872298
17.950930723 0.880874
18.4495727245 0.868403
18.9482149987 0.85753
19.4468575456 0.859551
19.9455003653 0.860435
20.4441434577 0.861179
20.942786823 0.867044
21.4414304612 0.873675
21.9400743722 0.879562
22.4387185562 0.883951
22.9373630132 0.886134
23.4360077431 0.888162
23.9346527461 0.896246
24.4332980221 0.909355
24.9319435712 0.918308
