-24.9805696586 1.19622
-24.4809627436 1.08433
-23.9813556461 1.02431
-23.4817483659 1.02926
-22.982140903 1.00587
-22.4825332575 0.971787
-21.9829254293 0.944902
-21.4833174184 0.926148
-20.9837092249 0.921243
-20.4841008486 0.923681
-19.9844922897 0.856641
-19.484883548 0.827243
-18.9852746236 0.825896
-18.4856655164 0.851293
-17.9860562266 0.874938
-17.4864467539 0.843228
-16.9868370985 0.791144
-16.4872272603 0.715106
-15.9876172393 0.648481
-15.4880070356 0.650828
-14.988396649 0.663922
-14.4887860796 0.660483
-13.9891753274 0.65836
-13.4895643924 0.65093
-12.9899532745 0.654141
-12.4903419738 0.670838
-11.9907304902 0.681302
-11.4911188237 0.671294
-10.9915069743 0.667116
-10.4918949421 0.658459
-9.99228272695 0.640107
-9.49267032889 0.60384
-8.99305774791 0.557524
-8.49344498401 0.490387
-7.99383203716 0.419137
-7.49421890736 0.360058
-6.99460559461 0.323084
-6.49499209889 0.308417
-5.99537842019 0.263692
-5.4957645585 0.22456
-4.99615051381 0.1594
-4.49653628612 0.101689
-3.99692187541 0.0346273
-3.49730728168 0.0548275
-2.9976925049 0.0408472
-2.49807754509 0.0114123
-1.99846240222 0.00608882
-1.49884707628 0.0119
-0.999231567276 0.0129984
-0.499615875184 0.0109931
0 0.015686
0.499616058287 0.00620712
0.999232299686 0.00768903
1.49884872421 0.0078763
1.99846533186 0.00909957
2.49808212265 0.0131924
2.99769909659 0.0061584
3.49731625369 0
3.99693359396 0.0134285
4.49655111741 0.0517836
4.99616882405 0.105669
5.49578671388 0.185622
5.99540478692 0.276388
6.49502304318 0.3205
6.99464148267 0.340846
7.49426010538 0.394316
7.99387891135 0.547924
8.49349790057 0.741906
8.99311707305 0.895939
9.49273642881 1.00423
9.99235596785 1.07288
10.4919756902 1.06441
10.9915955958 1.05944
11.4912156848 1.03931
11.990835957 0.979872
12.4904564126 0.95369
12.9900770515 0.986477
13.4896978738 1.03087
13.9893188795 1.0776
14.4889400685 1.14556
14.9885614409 1.2649
15.4881829966 1.28858
15.9878047358 1.34533
16.4874266584 1.44929
16.9870487644 1.50982
17.4866710538 1.46666
17.9862935266 1.44001
18.4859161829 1.39667
18.9855390227 1.35446
19.4851620459 1.30153
19.9847852525 1.1948
20.4844086427 1.12873
20.9840322163 1.07774
21.4836559735 0.975306
21.9832799141 0.920367
22.4829040383 0.881776
22.982528346 0.81003
23.4821528372 0.763983
23.981777512 0.686062
24.4814023703 0.675667
24.9810274122 0.645596
