-24.9367133515 0.531981
-24.4379855203 0.530123
-23.939257427 0.534604
-23.4405290714 0.531611
-22.9418004536 0.526808
-22.4430715736 0.520359
-21.9443424312 0.518513
-21.4456130264 0.517331
-20.9468833593 0.518073
-20.4481534298 0.516729
-19.9494232378 0.520953
-19.4506927834 0.531433
-18.9519620665 0.536324
-18.453231087 0.538383
-17.954499845 0.5353
-17.4557683403 0.532935
-16.9570365731 0.536985
-16.4583045432 0.539796
-15.9595722505 0.539162
-15.4608396952 0.536028
-14.9621068771 0.545361
-14.4633737963 0.602583
-13.9646404526 0.701634
-13.4659068461 0.765055
-12.9671729767 0.731302
-12.4684388444 0.713775
-11.9697044491 0.655275
-11.4709697909 0.595144
-10.9722348697 0.546449
-10.4734996854 0.507774
-9.97476423811 0.497813
-9.47602852769 0.502052
-8.97729255415 0.50811
-8.47855631745 0.516053
-7.97981981755 0.543689
-7.48108305444 0.564361
-6.98234602807 0.572809
-6.48360873842 0.501649
-5.98487118546 0.386276
-5.48613336915 0.273188
-4.98739528946 0.184112
-4.48865694637 0.111885
-3.98991833983 0.0589472
-3.49117946983 0.0265295
-2.99244033632 0.0211047
-2.49370093928 0.0186693
-1.99496127868 0.0146349
-1.49622135448 0.0116261
-0.997481166653 0.00999833
-0.498740715171 0.00546534
0 0.00489483
0.49874097889 0.0047996
0.99748222153 0
1.49622372795 0.00784909
1.99496549819 0.0235221
2.49370753227 0.0520303
2.99244983022 0.121202
3.49119239208 0.198219
3.98993521788 0.27449
4.48867830764 0.34079
4.98742166141 0.389279
5.4861652792 0.435687
5.98490916105 0.466097
6.483653307 0.486419
6.98239771707 0.503425
7.4811423913 0.528725
7.97988732971 0.558005
8.47863253233 0.614939
8.97737799921 0.656385
9.47612373036 0.687335
9.97486972582 0.724807
10.4736159856 0.77294
10.9723625098 0.799456
11.4711092984 0.825531
11.9698563514 0.850907
12.4686036688 0.880257
12.9673512508 0.908132
13.4660990973 0.930078
13.9648472084 0.943901
14.463595584 0.969871
14.9623442243 0.997499
15.4610931292 1.01818
15.9598422987 1.02407
16.458591733 1.01504
16.9573414321 1.01949
17.4560913959 1.04979
17.9548416245 1.07909
18.453592118 1.11736
18.9523428763 1.116
19.4510938995 1.04568
19.9498451876 0.949279
20.4485967407 0.881055
20.9473485588 0.839389
21.4461006419 0.82073
21.9448529901 0.813143
22.4436056033 0.795866
22.9423584817 0.773995
23.4411116252 0.75662
23.9398650339 0.741554
24.4386187077 0.767503
24.9373726468 0.816832
