-24.9303632274 0.211223
-24.4317626009 0.207283
-23.9331617039 0.204392
-23.4345605366 0.207148
-22.9359590987 0.212128
-22.4373573904 0.216759
-21.9387554116 0.21854
-21.4401531622 0.215035
-20.9415506422 0.226697
-20.4429478516 0.268439
-19.9443447903 0.321027
-19.4457414583 0.376354
-18.9471378556 0.410092
-18.4485339821 0.424629
-17.9499298378 0.45744
-17.4513254227 0.510619
-16.9527207367 0.556205
-16.4541157798 0.603955
-15.955510552 0.674136
-15.4569050532 0.747675
-14.9582992834 0.8081
-14.4596932425 0.816465
-13.9610869306 0.619751
-13.4624803475 0.433644
-12.9638734933 0.343845
-12.465266368 0.290886
-11.9666589714 0.207933
-11.4680513036 0.180243
-10.9694433645 0.170679
-10.470835154 0.158761
-9.97222667225 0.1407
-9.47361791908 0.118534
-8.9750088945 0.104649
-8.47639959846 0.102152
-7.97779003093 0.0912035
-7.47918019187 0.046351
-6.98057008126 0.00777755
-6.48195969906 0
-5.98334904524 0.00142541
-5.48473811975 0.00682809
-4.98612692257 0.0167489
-4.48751545365 0.0294261
-3.98890371298 0.0209834
-3.49029170051 0.0256997
-2.9916794162 0.0443913
-2.49306686004 0.0802492
-1.99445403197 0.0833329
-1.49584093196 0.1132
-0.997227559989 0.16088
-0.498613916013 0.251239
0 0.352281
0.498614188084 0.393562
0.997228648274 0.336851
1.4958433806 0.254965
1.99445838511 0.199334
2.49307366182 0.18307
2.99168921077 0.164234
3.490305032 0.14832
3.98892112555 0.134665
4.48753749143 0.127494
4.9861541297 0.124067
5.48477104038 0.12139
5.9833882235 0.126354
6.48200567911 0.121689
6.98062340723 0.115774
7.4792414079 0.115363
7.97785968116 0.120315
8.47647822703 0.12723
8.97509704556 0.136405
9.47371613677 0.146507
9.97233550071 0.165016
10.4709551374 0.162635
10.9695750469 0.163699
11.4681952292 0.164572
11.9668156843 0.166862
12.4654364124 0.160272
12.9640574133 0.157689
13.4626786873 0.158565
13.9613002342 0.186627
14.4599220541 0.248458
14.9585441471 0.314444
15.4571665132 0.372372
15.9557891525 0.385527
16.4544120649 0.392661
16.9530352505 0.40293
17.4516587093 0.428532
17.9502824414 0.448117
18.4489064468 0.46618
18.9475307255 0.499227
19.4461552776 0.5718
19.9447801031 0.631719
20.443405202 0.674635
20.9420305744 0.697878
21.4406562203 0.706784
21.9392821397 0.732078
22.4379083327 0.756007
22.9365347993 0.77488
23.4351615395 0.787284
23.9337885534 0.767259
24.4324158411 0.745887
24.9310434024 0.727048
