-24.9303731542 0.418275
-24.4317723308 0.411752
-23.9331712368 0.400711
-23.4345698724 0.391133
-22.9359682375 0.379397
-22.437366332 0.351748
-21.9387641559 0.317907
-21.4401617092 0.307859
-20.9415589918 0.311074
-20.4429560037 0.298156
-19.9443527449 0.283042
-19.4457492153 0.279487
-18.947145415 0.280131
-18.4485413438 0.28553
-17.9499370017 0.281999
-17.4513323888 0.278914
-16.9527275049 0.294396
-16.45412235 0.315275
-15.9555169241 0.321085
-15.4569112272 0.347091
-14.9583052592 0.348484
-14.4596990201 0.336191
-13.9610925099 0.310852
-13.4624857285 0.285669
-12.9638786759 0.263564
-12.465271352 0.259661
-11.9666637568 0.270808
-11.4680558904 0.310582
-10.9694477526 0.365974
-10.4708393434 0.410725
-9.97223066275 0.438098
-9.47362171068 0.413892
-8.97501248713 0.339796
-8.47640299206 0.260272
-7.97779322543 0.185386
-7.47918318722 0.114302
-6.98057287738 0.0548608
-6.48196229589 0.0349475
-5.9833514427 0.0265319
-5.48474031778 0.0213126
-4.98612892111 0.0179874
-4.48751725264 0.0108475
-3.98890531234 0.00637963
-3.49029310018 0.00277646
-2.99168061612 0.000835418
-2.49306786013 0
-1.99445483217 0.000131525
-1.49584153222 0.00690411
-0.997227960224 0.00986675
-0.498614116164 0.014309
0 0.00496686
0.498614388301 0.0218859
0.997229048773 0.0413481
1.49584398145 0.0522413
1.99445918637 0.0525184
2.49307466356 0.0514105
2.99169041306 0.0467116
3.4903064349 0.0512843
3.98892272912 0.0639152
4.48753929575 0.0896651
4.98615613482 0.128906
5.48477324638 0.173832
5.98339063044 0.219395
6.48200828706 0.261059
6.98062621625 0.293585
7.47924441806 0.34824
7.97786289252 0.370522
8.47648163967 0.313035
8.97510065953 0.252946
9.47371995214 0.219146
9.97233951754 0.200064
10.4709593558 0.198546
10.9695794668 0.211174
11.4681998508 0.216157
11.9668205077 0.223782
12.4654414375 0.246052
12.9640626403 0.282873
13.4626841162 0.321231
13.9613058651 0.32895
14.4599278871 0.365461
14.9585501823 0.400157
15.4571727505 0.404931
15.955795592 0.411072
16.4544187068 0.416576
16.9530420947 0.419404
17.451665756 0.429866
17.9502896906 0.443537
18.4489138986 0.456097
18.9475383799 0.476452
19.4461631347 0.523458
19.944788163 0.577742
20.4434134648 0.626123
20.9420390401 0.660318
21.440664889 0.668478
21.9392910114 0.666987
22.4379174075 0.670884
22.9365440773 0.678576
23.4351710208 0.691534
23.933798238 0.703548
24.432425729 0.707506
24.9310534938 0.719125
