-24.9298617938 0.588092
-24.4312712282 0.601965
-23.9326803908 0.615622
-23.4340892817 0.635811
-22.9354979008 0.644452
-22.4369062482 0.688238
-21.9383143237 0.734454
-21.4397221273 0.776514
-20.941129659 0.829388
-20.4425369188 0.871021
-19.9439439066 0.928486
-19.4453506223 0.938457
-18.9467570661 0.945514
-18.4481632377 0.917848
-17.9495691373 0.884604
-17.4509747647 0.843026
-16.9523801199 0.764525
-16.4537852029 0.662683
-15.9551900136 0.556517
-15.4565945521 0.414799
-14.9579988182 0.321245
-14.459402812 0.317814
-13.9608065333 0.362385
-13.4622099823 0.433563
-12.9636131588 0.445284
-12.4650160628 0.419196
-11.9664186942 0.447194
-11.4678210531 0.46925
-10.9692231394 0.417862
-10.4706249531 0.359708
-9.97202649406 0.331244
-9.47342776235 0.288064
-8.97482875789 0.249709
-8.47622948067 0.236299
-7.97762993063 0.218851
-7.47903010775 0.210762
-6.980430012 0.228115
-6.48182964333 0.259501
-5.98322900172 0.296988
-5.48462808712 0.325683
-4.98602689952 0.342353
-4.48742543886 0.351935
-3.98882370511 0.352833
-3.49022169825 0.34331
-2.99161941824 0.336627
-2.49301686504 0.336713
-1.99441403861 0.336416
-1.49581093893 0.333685
-0.997207565958 0.324776
-0.498603919659 0.31482
0 0.306601
0.498604193054 0.308401
0.997208659535 0.328089
1.49581339948 0.365699
1.99441841293 0.404045
2.4930236999 0.435257
2.99162926045 0.446569
3.49023509459 0.460767
3.98884120237 0.462039
4.48744758382 0.432476
4.98605423898 0.348028
5.48466116787 0.235483
5.98326837054 0.139287
6.48187584701 0.157299
6.98048359733 0.123232
7.47909162152 0.0802675
7.97769991963 0.0384993
8.47630849168 0.0244532
8.97491733771 0.0274409
9.47352645775 0.0112797
9.97213585184 0.00111416
10.47074552 0
10.9693554623 0.0104362
11.4679656787 0.0286945
11.9665761694 0.0443202
12.4651869342 0.0575585
12.9637979733 0.0798633
13.4624092867 0.09781
13.9610208744 0.128817
14.4596327365 0.150886
14.958244873 0.180811
15.4568572838 0.220284
15.9554699692 0.339592
16.454082929 0.451928
16.9526961634 0.540251
17.4513096723 0.569958
17.9499234559 0.585722
18.448537514 0.578981
18.9471518468 0.574404
19.4457664544 0.582307
19.9443813366 0.597888
20.4429964936 0.608412
20.9416119255 0.617242
21.4402276321 0.624498
21.9388436137 0.613809
22.4374598701 0.584384
22.9360764015 0.566627
23.4346932078 0.544971
23.9333102892 0.518873
24.4319276456 0.488752
24.930545277 0.457163
