-24.9299082584 0.78389
-24.4313167658 0.838779
-23.9327250015 0.877633
-23.4341329653 0.925631
-22.9355406573 0.999727
-22.4369480774 1.00552
-21.9383552255 0.966274
-21.4397621016 0.923536
-20.9411687058 0.887909
-20.4425750379 0.85515
-19.9439810979 0.824387
-19.4453868859 0.831643
-18.9467924016 0.85359
-18.4481976452 0.884704
-17.9496026166 0.896368
-17.4510073158 0.893093
-16.9524117426 0.892313
-16.4538158972 0.888397
-15.9552197793 0.88408
-15.4566233891 0.880683
-14.9580267265 0.880063
-14.4594297914 0.880499
-13.9608325839 0.893651
-13.4622351038 0.960055
-12.9636373511 1.0389
-12.4650393258 1.11211
-11.966441028 1.17761
-11.4678424574 1.23685
-10.9692436142 1.25673
-10.4706444982 1.21948
-9.97204510943 1.15245
-9.47344544788 1.02676
-8.9748455135 0.809344
-8.47624530624 0.614236
-7.97764482607 0.4753
-7.47904407297 0.393084
-6.98044304688 0.287117
-6.48184174779 0.174768
-5.98324017566 0.0673187
-5.48463833044 0.0168624
-4.98603621211 0
-4.48743382064 0.00794733
-3.98883115598 0.0124812
-3.4902282181 0.0184257
-2.99162500697 0.0215802
-2.49302152256 0.0236137
-1.99441776483 0.0245262
-1.49581373374 0.0226957
-0.997209429261 0.0283225
-0.498604851359 0.0385699
0 0.0558462
0.498605124853 0.10231
0.997210523232 0.173708
1.49581619517 0.217155
1.99442214071 0.22806
2.49302835988 0.238002
2.99163485271 0.314268
3.49024161924 0.417289
3.9888486595 0.492822
4.48745597354 0.567089
4.98606356137 0.555336
5.48467142304 0.56536
5.98327955859 0.547641
6.48188796803 0.562414
6.98049665142 0.491245
7.47910560878 0.442072
7.97771484016 0.424935
8.47632434557 0.418857
8.97493412506 0.41125
9.47354417866 0.404857
9.97215450641 0.401868
10.4707651083 0.401958
10.9693759845 0.403932
11.4679871349 0.401778
11.9665985595 0.399039
12.4652102585 0.407719
12.9638222319 0.419478
13.4624344796 0.436807
13.9610470018 0.471491
14.4596597984 0.551356
14.9582728694 0.613273
15.4568862151 0.633513
15.9554998352 0.63962
16.45411373 0.654892
16.9527278994 0.673667
17.4513423434 0.675834
17.9499570622 0.673823
18.4485720556 0.677952
18.9471873239 0.677162
19.4458028669 0.679675
19.9444186848 0.685018
20.4430347775 0.703072
20.9416511451 0.759012
21.4402677877 0.841603
21.9388847052 0.902607
22.4375018977 0.868432
22.9361193653 0.828756
23.4347371079 0.81231
23.9333551256 0.804609
24.4319734185 0.801436
24.9305919865 0.799939
