-24.9303427138 0.495502
-24.431742537 0.491256
-23.9331420882 0.483141
-23.4345413673 0.48682
-22.9359403744 0.484411
-22.4373391094 0.483291
-21.9387375722 0.507955
-21.4401357629 0.545335
-20.9415336814 0.596288
-20.4429313276 0.639784
-19.9443287015 0.674655
-19.4457258032 0.691827
-18.9471226325 0.702847
-18.4485191894 0.740464
-17.9499154739 0.778114
-17.451311486 0.79664
-16.9527072256 0.763524
-16.4541026927 0.712959
-15.9554978872 0.608377
-15.4568928091 0.513355
-14.9582874584 0.457029
-14.4596818351 0.446334
-13.9610759391 0.441695
-13.4624697703 0.448551
-12.9638633288 0.452172
-12.4652566146 0.453954
-11.9666496274 0.459563
-11.4680423675 0.474463
-10.9694348346 0.489533
-10.4708270288 0.507991
-9.97221895006 0.527574
-9.4736105983 0.529151
-8.97500197352 0.502604
-8.47639307567 0.428386
-7.97778390472 0.341371
-7.47917446064 0.249671
-6.98056474339 0.159924
-6.48195475294 0.0935295
-5.98334448925 0.0468621
-5.48473395229 0.0211936
-4.98612314202 0.00876336
-4.48751205841 0.00454743
-3.98890070143 0.000283273
-3.49028907104 0.000449015
-2.99167716721 0.000479568
-2.4930649899 0
-1.99445253908 0.00415956
-1.49583981471 0.0103386
-0.997226816768 0.0116138
-0.498613545209 0.0137981
0 0.0261669
0.49861381889 0.0547632
0.997227911498 0.094107
1.49584227786 0.153031
1.994456918 0.215111
2.49307183196 0.276117
2.99168701978 0.335532
3.49030248148 0.402777
3.98891821711 0.492245
4.48753422669 0.569819
4.98615051026 0.614515
5.48476706786 0.674901
5.98338389952 0.759085
6.48200100526 0.792204
6.98061838514 0.792163
7.47923603917 0.779101
7.97785396741 0.738282
8.47647216986 0.707573
8.97509064659 0.692723
9.47370939761 0.681032
9.97232842296 0.682076
10.4709477227 0.689482
10.9695672968 0.704122
11.4681871453 0.718949
11.9668072684 0.733572
12.4654276659 0.74214
12.9640483379 0.744714
13.4626692846 0.742887
13.9612905058 0.742933
14.4599120017 0.752824
14.9585337722 0.75902
15.4571558175 0.769763
15.9557781375 0.766032
16.4544007322 0.752995
16.9530236018 0.715564
17.4516467462 0.673188
17.9502701655 0.60258
18.4488938597 0.546991
18.9475178288 0.51045
19.446142073 0.478609
19.9447665921 0.449443
20.4433913863 0.421923
20.9420164555 0.40642
21.4406417999 0.380154
21.9392674194 0.360489
22.4378933141 0.322395
22.9365194841 0.293046
23.4351459292 0.269336
23.9337726497 0.267975
24.4323996455 0.270893
24.9310269166 0.27403
