-24.9617681582 0.190354
-24.4625382406 0.176227
-23.9633081009 0.17131
-23.4640777393 0.158491
-22.9648471556 0.129557
-22.46561635 0.138382
-21.9663853223 0.183663
-21.4671540725 0.231107
-20.9679226007 0.286065
-20.4686909068 0.319982
-19.9694589908 0.363972
-19.4702268526 0.427223
-18.9709944923 0.489989
-18.4717619098 0.503784
-17.9725291052 0.512253
-17.4732960783 0.518223
-16.9740628292 0.49967
-16.4748293579 0.478604
-15.9755956643 0.463075
-15.4763617484 0.455291
-14.9771276102 0.442894
-14.4778932497 0.428996
-13.9786586668 0.404417
-13.4794238616 0.379585
-12.980188834 0.326864
-12.480953584 0.250777
-11.9817181116 0.179828
-11.4824824168 0.107545
-10.9832464995 0.0410328
-10.4840103597 0.0218832
-9.98477399744 0.0118413
-9.48553741268 0.0217703
-8.98630060538 0.0342329
-8.48706357553 0.0378994
-7.98782632312 0.0646515
-7.48858884812 0.0823106
-6.98935115052 0.0847241
-6.49011323029 0.0680871
-5.99087508742 0.0130067
-5.49163672189 0.00011535
-4.99239813368 0
-4.49315932277 0.0104532
-3.99392028914 0.0279251
-3.49468103278 0.0590856
-2.99544155365 0.0929175
-2.49620185176 0.117231
-1.99696192707 0.146376
-1.49772177957 0.171365
-0.998481409234 0.206491
-0.499240816051 0.195366
0 0.204737
0.499241038937 0.206641
0.998482300782 0.198262
1.49772378555 0.195857
1.99696549326 0.200764
2.49620742394 0.186748
2.9954495776 0.145407
3.49469195425 0.116753
3.99393455393 0.103503
4.49317737664 0.0961155
4.99242042241 0.102195
5.49166369126 0.10686
5.9909071832 0.104335
6.49015089825 0.104732
6.98939483643 0.114304
7.48863899776 0.104966
7.98788338226 0.0888465
8.48712798995 0.0876321
8.98637282085 0.114635
9.48561787497 0.152928
9.98486315233 0.196393
10.484108653 0.24058
10.9833543769 0.290906
11.4826003241 0.362727
11.9818464946 0.396608
12.4810928884 0.429691
12.9803395057 0.496762
13.4795863463 0.570331
13.9788334102 0.624536
14.4780806976 0.647055
14.9773282085 0.639163
15.4765759427 0.629111
15.9758239005 0.634458
16.4750720817 0.59756
16.9743204864 0.587186
17.4735691147 0.566584
17.9728179665 0.611238
18.4720670418 0.620515
18.9713163408 0.613378
19.4705658633 0.59896
19.9698156094 0.585806
20.4690655792 0.663985
20.9683157727 0.760428
21.4675661898 0.885392
21.9668168306 1.00625
22.4660676951 1.04546
22.9653187833 0.955029
23.4645700953 0.820566
23.963821631 0.784052
24.4630733906 0.740278
24.9623253739 0.720237
