-24.93200747 0.899379
-24.4333739826 0.912867
-23.9347402238 0.927129
-23.4361061937 0.860799
-22.9374718921 0.801817
-22.438837319 0.74386
-21.9402024743 0.705083
-21.4415673582 0.729748
-20.9429319704 0.713203
-20.4442963111 0.721667
-19.94566038 0.704738
-19.4470241773 0.619747
-18.9483877029 0.610601
-18.4497509567 0.713927
-17.9511139388 0.856412
-17.452476649 1.01321
-16.9538390874 1.0742
-16.4552012539 1.07019
-15.9565631484 1.02884
-15.4579247711 0.954812
-14.9592861217 1.01189
-14.4606472003 1.05881
-13.9620080068 1.0486
-13.4633685413 1.03537
-12.9647288036 1.03134
-12.4660887938 1.01463
-11.9674485118 0.979163
-11.4688079576 0.961538
-10.9701671311 0.951631
-10.4715260323 0.918241
-9.97288466126 0.872252
-9.47424301781 0.822475
-8.97560110197 0.773679
-8.47695891371 0.709567
-7.97831645299 0.655761
-7.47967371978 0.621839
-6.98103071405 0.582927
-6.48238743575 0.505658
-5.98374388487 0.415728
-5.48510006136 0.404008
-4.9864559652 0.420884
-4.48781159634 0.458374
-3.98916695476 0.521141
-3.49052204042 0.6018
-2.99187685329 0.669966
-2.49323139333 0.670213
-1.99458566052 0.652608
-1.49593965481 0.585769
-0.997293376178 0.505819
-0.498646824585 0.430236
0 0.382328
0.498647097612 0.333502
0.997294468281 0.279914
1.49594211205 0.212824
1.99459002893 0.141847
2.49323821898 0.106457
2.99188668223 0.104778
3.49053541869 0.110468
3.98918442842 0.120783
4.48783371144 0.131395
4.98648326779 0.144615
5.4851330975 0.150728
5.9837832006 0.141508
6.48243357712 0.0905308
6.98108422711 0.0673924
7.47973515059 0.0529715
7.97838634759 0.0184837
8.47703781816 0
8.97568956231 0.0059292
9.4743415801 0.0316204
9.97299387154 0.0964751
10.4716464367 0.161764
10.9702992755 0.212259
11.4689523882 0.25315
11.9676057746 0.265122
12.4662594348 0.282227
12.9649133689 0.322283
13.4635675769 0.396995
13.9622220588 0.52734
14.4608768147 0.635187
14.9595318446 0.624311
15.4581871485 0.606858
15.9568427264 0.585069
16.4554985785 0.598518
16.9541547046 0.622461
17.452811105 0.62372
17.9514677795 0.616633
18.4501247282 0.645864
18.9487819512 0.677147
19.4474394485 0.721542
19.9460972201 0.764799
20.4447552661 0.78136
20.9434135865 0.814241
21.4420721812 0.84263
21.9407310505 0.907957
22.4393901942 0.94163
22.9380496125 0.903314
23.4367093053 0.874515
23.9353692727 0.892803
24.4340295147 0.911624
24.9326900314 0.936378
