-25.0025344523 1.1997
-24.502486809 1.13816
-24.0024390413 1.01393
-23.5023911493 0.888604
-23.002343133 0.781743
-22.5022949924 0.717638
-22.0022467274 0.704835
-21.5021983381 0.699894
-21.0021498244 0.717248
-20.5021011864 0.762368
-20.0020524241 0.804265
-19.5020035375 0.827401
-19.0019545266 0.850435
-18.5019053913 0.82794
-18.0018561318 0.789224
-17.5018067479 0.779178
-17.0017572396 0.791168
-16.5017076071 0.785658
-16.0016578503 0.773898
-15.5016079691 0.758091
-15.0015579636 0.733675
-14.5015078338 0.693675
-14.0014575797 0.609188
-13.5014072013 0.553931
-13.0013566986 0.510926
-12.5013060716 0.468243
-12.0012553203 0.434048
-11.5012044446 0.400495
-11.0011534447 0.355874
-10.5011023205 0.322622
-10.0010510719 0.272953
-9.50099969911 0.244188
-9.00094820198 0.185613
-8.50089658055 0.142022
-8.00084483482 0.20149
-7.5007929648 0.262998
-7.00074097049 0.300536
-6.50068885188 0.333686
-6.00063660898 0.35678
-5.5005842418 0.355082
-5.00053175032 0.321053
-4.50047913456 0.291087
-4.00042639452 0.226902
-3.50037353018 0.173977
-3.00032054157 0.123176
-2.50026742867 0.0807433
-2.00021419149 0.0861204
-1.50016083004 0.0874626
-1.0001073443 0.109432
-0.500053734287 0.13315
0 0.100088
0.500053858562 0.0492791
1.0001078414 0.0225758
1.5001619485 0
2.00021617988 0.0483625
2.50027053553 0.14477
3.00032501545 0.288577
3.50037961963 0.47021
4.00043434807 0.561331
4.50048920078 0.670886
5.00054417776 0.81424
5.50059927899 0.87569
6.00065450449 0.899959
6.50070985424 0.920655
7.00076532825 0.93311
7.50082092652 0.93735
8.00087664904 0.931373
8.50093249581 0.937019
9.00098846684 0.922755
9.50104456212 0.868371
10.0011007816 0.822881
10.5011571254 0.79438
11.0012135934 0.793572
11.5012701857 0.7948
12.0013269022 0.75105
12.501383743 0.722405
13.001440708 0.696751
13.5014977972 0.677178
14.0015550107 0.663826
14.5016123484 0.676328
15.0016698103 0.738415
15.5017273965 0.84049
16.0017851069 0.933226
16.5018429416 1.00967
17.0019009004 1.04106
17.5019589836 1.06944
18.0020171909 1.10402
18.5020755224 1.15022
19.0021339782 1.21152
19.5021925582 1.28455
20.0022512625 1.33922
20.5023100909 1.34259
21.0023690436 1.36799
21.5024281205 1.38797
22.0024873216 1.36867
22.5025466469 1.31608
23.0026060964 1.25106
23.5026656701 1.22497
24.0027253681 1.21939
24.5027851903 1.20751
25.0028451366 1.17299
