-24.9299089768 0.90543
-24.4313174701 0.902798
-23.9327256915 0.882609
-23.434133641 0.868635
-22.9355413187 0.858033
-22.4369487245 0.862241
-21.9383558584 0.861183
-21.4397627202 0.838741
-20.9411693101 0.772997
-20.4425756279 0.670302
-19.9439816737 0.642009
-19.4453874473 0.628477
-18.9467929488 0.624032
-18.4481981781 0.634583
-17.9496031351 0.765513
-17.4510078199 0.863411
-16.9524122325 0.910988
-16.4538163727 0.928064
-15.9552202405 0.902059
-15.456623836 0.898324
-14.958027159 0.910453
-14.4594302096 0.881433
-13.9608329877 0.852647
-13.4622354932 0.871985
-12.9636377262 0.897822
-12.4650396866 0.898444
-11.9664413743 0.923344
-11.4678427894 0.996077
-10.9692439318 1.01775
-10.4706448014 0.961753
-9.97204539826 0.876166
-9.47344572231 0.825447
-8.97484577352 0.765992
-8.47624555186 0.701778
-7.97764505728 0.648121
-7.47904428976 0.580803
-6.98044324926 0.490899
-6.48184193574 0.384885
-5.98324034918 0.280372
-5.48463848953 0.169427
-4.98603635676 0.0679244
-4.48743395084 0.00858589
-3.98883127173 0
-3.49022831941 0.00408876
-2.99162509382 0.0131979
-2.49302159494 0.0213975
-1.99441782274 0.0292436
-1.49581377718 0.0305223
-0.997209458229 0.0314527
-0.498604865846 0.0437529
0 0.055116
0.498605139343 0.051119
0.997210552219 0.044675
1.49581623866 0.0355205
1.9944221987 0.0539888
2.49302843238 0.103105
2.99163493973 0.133318
3.49024172078 0.145012
3.98884877557 0.164715
4.48745610413 0.207613
4.9860637065 0.236202
5.48467158271 0.285046
5.9832797328 0.355671
6.48188815679 0.449881
6.98049685473 0.461874
7.47910582665 0.430849
7.97771507259 0.395269
8.47632459257 0.388024
8.97493438663 0.388505
9.47354445481 0.386959
9.97215479714 0.381089
10.4707654137 0.380474
10.9693763044 0.379703
11.4679874694 0.397274
11.9665989086 0.413521
12.4652106222 0.41346
12.9638226102 0.408127
13.4624348725 0.42077
13.9610474093 0.427691
14.4596602205 0.434576
14.9582733063 0.437756
15.4568866665 0.446472
15.9555003013 0.46779
16.4541142107 0.493187
16.9527283948 0.541132
17.4513428535 0.583818
17.9499575869 0.614993
18.448572595 0.64798
18.9471878779 0.666356
19.4458034356 0.672799
19.9444192681 0.664268
20.4430353755 0.655504
20.9416517578 0.680548
21.4402684151 0.701716
21.9388853473 0.698069
22.4375025545 0.664317
22.9361200368 0.663094
23.4347377941 0.675304
23.9333558266 0.700083
24.4319741342 0.705932
24.9305927169 0.707918
