-25.0026077449 0.885231
-24.502558641 0.738972
-24.0025094126 0.600458
-23.5024600597 0.497093
-23.0024105822 0.446735
-22.5023609801 0.379551
-22.0023112536 0.350724
-21.5022614024 0.305659
-21.0022114267 0.236313
-20.5021613265 0.203902
-20.0021111017 0.226379
-19.5020607524 0.251387
-19.0020102786 0.257479
-18.5019596802 0.26414
-18.0019089572 0.272577
-17.5018581098 0.280688
-17.0018071378 0.292715
-16.5017560412 0.293899
-16.0017048202 0.284882
-15.5016534746 0.273294
-15.0016020044 0.270502
-14.5015504098 0.275405
-14.0014986906 0.285843
-13.5014468469 0.306795
-13.0013948786 0.308327
-12.5013427859 0.298714
-12.0012905686 0.294434
-11.5012382268 0.256986
-11.0011857604 0.209198
-10.5011331696 0.170768
-10.0010804542 0.125691
-9.50102761433 0.0788142
-9.00097464993 0.0336594
-8.50092156101 0.0184058
-8.00086834759 0.00641173
-7.50081500965 0.010257
-7.00076154719 0.0605034
-6.50070796024 0.0907176
-6.00065424877 0.112833
-5.50060041279 0.117338
-5.00054645231 0.0783833
-4.50049236733 0.0411473
-4.00043815784 0.0193191
-3.50038382385 0
-3.00032936536 0.00567198
-2.50027478238 0.128641
-2.00022007489 0.310705
-1.50016524291 0.451535
-1.00011028643 0.472244
-0.500055205463 0.488994
0 0.47268
0.500055329953 0.481049
1.0001107844 0.47007
1.50016636333 0.481655
2.00022206675 0.489723
2.50027789465 0.504196
3.00033384704 0.463061
3.50038992391 0.373192
4.00044612527 0.307695
4.5005024511 0.269876
5.00055890141 0.233614
5.5006154762 0.211227
6.00067217547 0.174338
6.50072899921 0.148417
7.00078594743 0.129339
7.50084302011 0.114624
8.00090021727 0.150258
8.5009575389 0.208074
9.001014985 0.269994
9.50107255556 0.345821
10.0011302506 0.439778
10.5011880701 0.504146
11.001246014 0.515531
11.5013040824 0.523879
12.0013622753 0.538385
12.5014205927 0.54589
13.0014790345 0.539092
13.5015376007 0.524729
14.0015962914 0.516413
14.5016551066 0.5087
15.0017140462 0.511828
15.5017731102 0.499043
16.0018322987 0.473158
16.5018916117 0.454881
17.0019510491 0.461338
17.5020106109 0.470203
18.0020702972 0.457701
18.5021301079 0.453582
19.0021900431 0.399481
19.5022501027 0.322611
20.0023102867 0.261164
20.5023705952 0.216179
21.0024310281 0.205828
21.5024915855 0.249251
22.0025522672 0.333966
22.5026130734 0.443357
23.0026740041 0.574628
23.5027350591 0.69124
24.0027962386 0.754209
24.5028575425 0.771893
25.0029189708 0.728314
