-24.980482289 1.55164
-24.480877112 1.52133
-23.9812717528 1.47671
-23.4816662113 1.40285
-22.9820604875 1.37746
-22.4824545815 1.36846
-21.9828484932 1.34575
-21.4832422226 1.32155
-20.9836357697 1.3106
-20.4840291345 1.30409
-19.984422317 1.28174
-19.4848153171 1.25953
-18.9852081349 1.22232
-18.4856007703 1.1786
-17.9859932234 1.15564
-17.4863854941 1.15873
-16.9867775825 1.14722
-16.4871694884 1.14907
-15.9875612119 1.1472
-15.4879527531 1.07679
-14.9883441118 0.965136
-14.4887352881 0.951106
-13.9891262819 0.933765
-13.4895170933 0.925825
-12.9899077222 0.946333
-12.4902981687 0.993765
-11.9906884327 1.06291
-11.4910785142 1.08804
-10.9914684132 1.01065
-10.4918581297 0.94804
-9.99224766367 0.847416
-9.49263701513 0.884828
-8.99302618405 0.924503
-8.49341517042 0.975968
-7.99380397424 1.03902
-7.4941925955 1.08915
-6.99458103418 1.11921
-6.49496929027 1.11866
-5.99535736378 1.0712
-5.49574525468 0.979006
-4.99613296296 0.870767
-4.49652048862 0.78059
-3.99690783166 0.668435
-3.49729499205 0.559653
-2.99768196979 0.468222
-2.49806876486 0.395647
-1.99845537727 0.340195
-1.498841807 0.266788
-0.999228054033 0.179563
-0.499614118372 0.109547
0 0.069226
0.499614301089 0.051045
0.999228784908 0.044828
1.49884345146 0.0263255
1.99845830077 0.00933477
2.49807333283 0.00541375
2.99768854765 0.008962
3.49730394526 0.00631863
3.99691952564 0.00968971
4.49653528883 0.00442362
4.99615123481 0.00358094
5.49576736362 0
5.99538367524 0.0123329
6.4950001697 0.0598499
6.994616847 0.118701
7.49423370716 0.180102
7.99385075017 0.247238
8.49346797606 0.303818
8.99308538483 0.359891
9.49270297648 0.4745
9.99232075104 0.622293
10.4919387085 0.74528
10.9915568489 0.80535
11.4911751722 0.841302
11.9907936785 0.879489
12.4904123677 0.974235
12.9900312398 1.04792
13.4896502949 1.02385
13.989269533 1.03147
14.4888889541 0.913209
14.9885085582 0.862678
15.4881283453 0.829799
15.9877483154 0.708924
16.4873684685 0.683062
16.9869888046 0.691162
17.4866093238 0.722257
17.9862300261 0.748491
18.4858509114 0.751228
18.9854719797 0.676148
19.4850932312 0.713842
19.9847146657 0.665588
20.4843362834 0.629523
20.9839580841 0.677412
21.483580068 0.665368
21.983202235 0.645461
22.4828245851 0.610249
22.9824471184 0.616643
23.4820698348 0.602965
23.9816927344 0.611375
24.4813158172 0.631642
24.9809390831 0.652156
