-24.9319841379 0.529072
-24.4333511135 0.484115
-23.9347178178 0.412318
-23.4360842508 0.351157
-22.9374504125 0.299154
-22.4388163029 0.267065
-21.940181922 0.2559
-21.4415472697 0.255305
-20.9429123459 0.272677
-20.4442771506 0.309973
-19.9456416839 0.379802
-19.4470059456 0.445551
-18.9483699358 0.480973
-18.4497336544 0.517484
-17.9510971013 0.558821
-17.4524602765 0.597846
-16.9538231801 0.597385
-16.4551858119 0.590102
-15.956548172 0.591453
-15.4579102603 0.575149
-14.9592720767 0.564256
-14.4606336213 0.528313
-13.9619948939 0.491937
-13.4633558946 0.460905
-12.9647166234 0.434697
-12.4660770802 0.412455
-11.9674372649 0.39332
-11.4687971775 0.382116
-10.9701568181 0.369075
-10.4715161865 0.338587
-9.97287528271 0.305527
-9.47423410674 0.269242
-8.97559265853 0.243522
-8.47695093806 0.256206
-7.97830894527 0.286171
-7.47966668015 0.314101
-6.98102414266 0.337335
-6.48238133277 0.357236
-5.98373825043 0.382714
-5.48509489562 0.394674
-4.98645126831 0.396811
-4.48780736846 0.395533
-3.98916319603 0.398343
-3.490518751 0.386279
-2.99187403333 0.366303
-2.49322904299 0.348814
-1.99458377994 0.320397
-1.49593824415 0.299393
-0.997292435582 0.295458
-0.498646354211 0.309211
0 0.318696
0.498646627086 0.336894
0.997293527078 0.365567
1.49594070001 0.384643
1.99458814592 0.416838
2.49323586483 0.43377
2.99188385679 0.450246
3.49053212182 0.406363
3.98918065995 0.359889
4.48782947123 0.365861
4.98647855568 0.378438
5.48512791334 0.384483
5.98377754424 0.378962
6.48242744842 0.352173
6.9810776259 0.332104
7.47972807673 0.325043
7.97837880092 0.308104
8.47702979853 0.26492
8.97568106958 0.226147
9.4743326141 0.209811
9.97298443213 0.193985
10.4716365237 0.181136
10.9702888888 0.126075
11.4689415276 0.018077
11.96759444 0
12.466247626 0.0171837
12.9649010858 0.0541184
13.4635548193 0.0842211
13.9622088266 0.0796509
14.4608631077 0.0878425
14.9595176627 0.111851
15.4581724915 0.163348
15.9568275942 0.231142
16.4554829708 0.285978
16.9541386215 0.345049
17.4527945461 0.395009
17.9514507448 0.445875
18.4501072175 0.45292
18.9487639644 0.420819
19.4474209853 0.378447
19.9460782805 0.361412
20.4447358499 0.410561
20.9433936935 0.460236
21.4420518114 0.503769
21.9407102035 0.551949
22.4393688701 0.610517
22.938027811 0.637901
23.4366870263 0.691199
23.935346516 0.762972
24.4340062802 0.784693
24.9326663189 0.80524
