-24.9479646961 0.739566
-24.4490114022 0.703133
-23.9500578637 0.690982
-23.4511040808 0.682873
-22.9521500533 0.695697
-22.4531957813 0.717849
-21.9542412646 0.758232
-21.4552865034 0.828421
-20.9563314975 0.895012
-20.4573762469 0.908963
-19.9584207517 0.841261
-19.4594650117 0.708921
-18.960509027 0.629823
-18.4615527976 0.569902
-17.9625963233 0.543264
-17.4636396042 0.539103
-16.9646826403 0.534579
-16.4657254315 0.532004
-15.9667679778 0.528595
-15.4678102792 0.525038
-14.9688523356 0.532777
-14.4698941471 0.578637
-13.9709357135 0.680721
-13.471977035 0.802472
-12.9730181114 0.911379
-12.4740589427 0.930882
-11.9750995289 0.930944
-11.4761398699 0.933886
-10.9771799658 0.920685
-10.4782198166 0.862289
-9.97925942212 0.772912
-9.48029878242 0.670115
-8.98133789746 0.561352
-8.48237676722 0.467001
-7.98341539167 0.382854
-7.48445377079 0.269916
-6.98549190455 0.164154
-6.48652979292 0.109178
-5.98756743588 0.0828243
-5.48860483341 0.0687612
-4.98964198547 0.0762518
-4.49067889204 0.0790174
-3.9917155531 0.06029
-3.49275196862 0.0208995
-2.99378813857 0
-2.49482406294 0.030975
-1.99585974168 0.0351504
-1.49689517479 0.0531448
-0.997930362229 0.0924379
-0.498965303974 0.167633
0 0.21999
0.498965549718 0.280529
0.997931345206 0.372835
1.49689738649 0.499573
1.99586367359 0.632693
2.49483020654 0.748168
2.99379698537 0.82002
3.49276401009 0.877956
3.99173128073 0.919849
4.49069879732 0.951045
4.98966655989 0.918744
5.48863456845 0.899843
5.98760282305 0.871078
6.48657132369 0.870162
6.98554007041 0.8924
7.48450906323 0.898654
7.98347830217 0.885802
8.48244778727 0.848897
8.98141751855 0.811418
9.48038749603 0.806649
9.97935771974 0.831652
10.4783281897 0.860054
10.977298906 0.834441
11.4762698685 0.786323
11.9752410774 0.742022
12.4742125326 0.706554
12.9731842342 0.705984
13.4721561823 0.773577
13.9711283767 0.843842
14.4701008177 0.916175
14.9690735051 0.968003
15.468046439 0.972821
15.9670196194 0.965108
16.4659930464 0.965572
16.96496672 0.980208
17.4639406402 0.999374
17.962914807 1.02098
18.4618892205 1.05818
18.9608638807 1.09548
19.4598387876 1.11559
19.9588139412 1.12133
20.4577893416 1.12372
20.9567649888 1.12281
21.4557408828 1.1234
21.9547170236 1.127
22.4536934113 1.1269
22.9526700459 1.13498
23.4516469274 1.12297
23.9506240559 1.09424
24.4496014313 1.10962
24.9485790537 1.19047
