-24.9299137506 0.995293
-24.4313221537 0.979119
-23.9327302848 0.947323
-23.4341381438 0.919626
-22.9355457307 0.910785
-22.4369530455 0.938816
-21.9383600882 1.00113
-21.4397668586 1.03526
-20.9411733568 1.04789
-20.4425795828 1.04445
-19.9439855365 1.02715
-19.4453912178 1.08976
-18.9467966267 1.21524
-18.4482017633 1.29555
-17.9496066274 1.28405
-17.451011219 1.18539
-16.9524155382 1.08448
-16.4538195848 1.07222
-15.9552233588 1.07952
-15.4566268602 1.08375
-14.9580300889 1.10491
-14.459433045 1.14843
-13.9608357284 1.17105
-13.462238139 1.14713
-12.9636402768 1.14627
-12.4650421418 1.13016
-11.966443734 1.07234
-11.4678450533 0.93961
-10.9692460996 0.61479
-10.470646873 0.416207
-9.97204737342 0.293629
-9.4734476008 0.403879
-8.97484755511 0.559806
-8.47624723633 0.637833
-7.97764664442 0.607031
-7.47904577934 0.568463
-6.98044464106 0.523215
-6.48184322956 0.45841
-5.98324154478 0.359769
-5.4846395867 0.227089
-4.98603735528 0.0921028
-4.4874348505 0.0299124
-3.9888320723 0
-3.49022902067 0.000345699
-2.99162569556 0.0144158
-2.49302209694 0.0173547
-1.99441822478 0.0169956
-1.49581407904 0.016517
-0.997209659684 0.0149499
-0.498604966683 0.0135038
0 0.0123864
0.498605240399 0.0124083
0.997210754549 0.0153743
1.49581654248 0.0148815
1.99442260424 0.0150357
2.49302893985 0.0171882
2.99163554934 0.017797
3.49024243276 0.0425246
3.98884959014 0.0959363
4.48745702151 0.162479
4.9860647269 0.248841
5.48467270636 0.348227
5.9832809599 0.447027
6.48188948758 0.561803
6.98049828942 0.650752
7.47910736546 0.728009
7.97771671573 0.794953
8.47632634027 0.800622
8.97493623911 0.805837
9.47354641228 0.82789
9.97215685982 0.856311
10.4707675818 0.857198
10.9693785782 0.873516
11.467989849 0.904626
11.9666013944 0.919184
12.4652132143 0.906789
12.9638253088 0.859596
13.4624376778 0.794624
13.9610503216 0.759775
14.45966324 0.742014
14.9582764331 0.746006
15.456889901 0.76337
15.9555036436 0.777652
16.4541176611 0.789264
16.9527319534 0.785799
17.4513465206 0.779453
17.9499613627 0.772186
18.4485764798 0.742205
18.9471918718 0.691253
19.4458075389 0.658235
19.944423481 0.630421
20.4430396982 0.623265
20.9416561905 0.60811
21.440272958 0.589556
21.9388900007 0.606371
22.4375073186 0.625174
22.9361249118 0.657429
23.4347427802 0.698414
23.933360924 0.663956
24.4319793432 0.634731
24.9305980377 0.562177
