-24.9380220849 0.428482
-24.4392680082 0.431104
-23.9405136722 0.448149
-23.4417590768 0.466417
-22.9430042221 0.478963
-22.4442491079 0.432483
-21.9454937344 0.371451
-21.4467381014 0.342312
-20.9479822089 0.303504
-20.4492260569 0.321548
-19.9504696453 0.35277
-19.4517129742 0.389619
-18.9529560434 0.473867
-18.454198853 0.564003
-17.9554414029 0.636339
-17.4566836932 0.701146
-16.9579257237 0.710777
-16.4591674944 0.66623
-15.9604090053 0.58078
-15.4616502564 0.482236
-14.9628912477 0.371626
-14.464131979 0.273748
-13.9653724505 0.227013
-13.466612662 0.278569
-12.9678526135 0.347211
-12.469092305 0.398409
-11.9703317365 0.401091
-11.4715709079 0.422252
-10.9728098192 0.477093
-10.4740484703 0.47517
-9.97528686132 0.442021
-9.47652499212 0.444813
-8.9777628627 0.504313
-8.47900047303 0.507496
-7.98023782307 0.492949
-7.48147491279 0.491265
-6.98271174217 0.488844
-6.48394831117 0.511088
-5.98518461976 0.557212
-5.48642066792 0.613552
-4.98765645561 0.70076
-4.48889198279 0.746871
-3.99012724945 0.757192
-3.49136225555 0.726385
-2.99259700106 0.675229
-2.49383148595 0.629146
-1.99506571018 0.625998
-1.49629967374 0.508945
-0.997533376577 0.377488
-0.498766818676 0.260394
0 0.14972
0.498767079479 0.0713891
0.997534419793 0.0324102
1.49630202097 0.0156278
1.99506988304 0.011384
2.49383800604 0.0112999
2.99260639 0.0114756
3.49137503494 0.00959294
3.9901439409 0.00747645
4.48891310791 0.00509687
4.98768253599 0.00255687
5.48645222518 0
5.98522217551 0.00221652
6.48399238701 0.0069257
6.98276285971 0.0172002
7.48153359364 0.0248392
7.98030458883 0.0805388
8.47907584531 0.177269
8.97784736311 0.267955
9.47661914226 0.361995
9.97539118279 0.426163
10.4741634847 0.464142
10.9729360481 0.51567
11.471708873 0.5899
11.9704819593 0.661953
12.4692553072 0.72147
12.9680289167 0.754239
13.4668027877 0.783847
13.9655769204 0.811907
14.4643513148 0.844317
14.9631259708 0.871884
15.4619008885 0.876864
15.960676068 0.832473
16.4594515092 0.808846
16.9582272123 0.78362
17.4570031772 0.76236
17.9557794039 0.727095
18.4545558926 0.68339
18.9533326432 0.623576
19.4521096557 0.605635
19.9508869302 0.610691
20.4496644668 0.634622
20.9484422653 0.656274
21.447220326 0.633999
21.9459986488 0.594924
22.4447772337 0.541287
22.9435560808 0.503716
23.44233519 0.481023
23.9411145615 0.466184
24.4398941953 0.468626
24.9386740914 0.483403
