-24.9805041213 1.36899
-24.48089851 1.34786
-23.9812927164 1.33812
-23.4816867404 1.32514
-22.9820805821 1.30567
-22.4824742414 1.30736
-21.9828677183 1.33831
-21.4832610129 1.36596
-20.983654125 1.24613
-20.4840470547 1.15359
-19.9844398021 1.09189
-19.4848323669 1.07118
-18.9852247494 1.04739
-18.4856169494 1.01214
-17.9860089669 0.976916
-17.486400802 0.945973
-16.9867924546 0.879851
-16.4871839247 0.821694
-15.9875752123 0.808021
-15.4879663174 0.825277
-14.98835724 0.862263
-14.4887479801 0.886807
-13.9891385376 0.90674
-13.4895289126 0.916885
-12.989919105 0.937389
-12.4903091149 0.923858
-11.9906989422 0.909575
-11.4910885869 0.942217
-10.991478049 0.981741
-10.4918673286 1.00002
-9.99225642545 0.988317
-9.49264533973 0.949499
-8.99303407138 0.923811
-8.49342262039 0.887253
-7.99381098674 0.87086
-7.49419917044 0.845245
-6.99458717146 0.798192
-6.4949749898 0.728765
-5.99536262546 0.658336
-5.49575007841 0.590139
-4.99613734866 0.517852
-4.49652443618 0.441293
-3.99691134098 0.398913
-3.49729806304 0.30951
-2.99768460236 0.22106
-2.49807095891 0.171557
-1.9984571327 0.163946
-1.49884312371 0.173415
-0.999228931941 0.168967
-0.499614557373 0.160083
0 0.163606
0.499614740187 0.176828
0.999229663199 0.188129
1.49884476905 0.177396
1.99846005773 0.155525
2.49807552928 0.124407
2.99769118368 0.104465
3.49730702095 0.0688379
3.99692304111 0.0229778
4.49653924416 0
4.99615563011 0.011519
5.49577219897 0.0247439
5.99538895075 0.0667423
6.49500588545 0.0635156
6.9946230031 0.087969
7.49424030369 0.0962869
7.99385778725 0.0917434
8.49347545377 0.0925925
8.99309330326 0.0970831
9.49271133574 0.0909976
9.99232955122 0.114929
10.4919479497 0.118637
10.9915665312 0.119661
11.4911852957 0.100026
11.9908042433 0.0975063
12.4904233739 0.113219
12.9900426875 0.146447
13.4896621842 0.177297
13.989281864 0.177425
14.4889017269 0.195527
14.9885217728 0.216252
15.4881420019 0.218022
15.987762414 0.210091
16.4873830093 0.19883
16.9870037877 0.198516
17.4866247493 0.208861
17.986245894 0.22928
18.4858672218 0.246165
18.9854887328 0.27882
19.485110427 0.308691
19.9847323044 0.346605
20.484354365 0.422927
20.9839766087 0.547732
21.4835990357 0.692301
21.9832216459 0.878101
22.4828444394 1.01702
22.982467416 1.03056
23.482090576 1.05191
23.9817139192 1.12458
24.4813374456 1.08796
24.9809611553 1.00334
