-25.002583304 0.962345
-24.5025346872 0.874086
-24.0024859459 0.669112
-23.5024370801 0.469805
-23.0023880899 0.293111
-22.5023389752 0.227369
-22.002289736 0.206922
-21.5022403723 0.15406
-21.0021908842 0.101465
-20.5021412716 0.0855346
-20.0020915345 0.0941361
-19.5020416729 0.114672
-19.0019916869 0.15021
-18.5019415764 0.190165
-18.0018913415 0.225145
-17.5018409821 0.274762
-17.0017904982 0.35463
-16.5017398899 0.419511
-16.0016891571 0.446483
-15.5016382998 0.470635
-15.0015873181 0.47117
-14.501536212 0.482137
-14.0014849813 0.508783
-13.5014336263 0.527105
-13.0013821467 0.497862
-12.5013305428 0.466685
-12.0012788143 0.439539
-11.5012269614 0.417074
-11.0011749841 0.361991
-10.5011228823 0.276652
-10.0010706561 0.199451
-9.50101830544 0.139858
-9.00096583033 0.110452
-8.50091323077 0.106177
-8.00086050678 0.105423
-7.50080765835 0.102172
-7.00075468548 0.0975374
-6.50070158817 0.0999821
-6.00064836643 0.0763431
-5.50059502025 0.0585875
-5.00054154964 0.0381998
-4.5004879546 0.0269744
-4.00043423512 0.0294637
-3.50038039122 0.128298
-3.00032642289 0.255599
-2.50027233014 0.304856
-2.00021811295 0.302556
-1.50016377135 0.21098
-1.00010930532 0.172395
-0.50005471487 0.140038
0 0.109478
0.500054839289 0.0753961
1.000109803 0.0554
1.50016489112 0.0689734
2.00022010366 0.106631
2.50027544061 0.159016
3.00033090197 0.155364
3.50038648774 0.124637
4.00044219793 0.106003
4.50049803252 0.0889999
5.00055399152 0.0506323
5.50061007492 0.0202653
6.00066628273 0
6.50072261494 0.0233511
7.00077907156 0.0582599
7.50083565257 0.119903
8.00089235798 0.18499
8.50094918779 0.292947
9.001006142 0.436626
9.5010632206 0.514794
10.0011204236 0.547548
10.501177751 0.54328
11.0012352028 0.51935
11.5012927789 0.481233
12.0013504795 0.493597
12.5014083044 0.498584
13.0014662537 0.512569
13.5015243274 0.509477
14.0015825255 0.47013
14.501640848 0.454449
15.0016992949 0.494472
15.5017578661 0.540585
16.0018165617 0.541457
16.5018753817 0.493212
17.001934326 0.438637
17.5019933948 0.379618
18.0020525879 0.348522
18.5021119053 0.327824
19.0021713472 0.290264
19.5022309134 0.274597
20.0022906039 0.315375
20.5023504189 0.422584
21.0024103582 0.514696
21.5024704218 0.610348
22.0025306098 0.713506
22.5025909222 0.80515
23.0026513589 0.811279
23.50271192 0.797141
24.0027726055 0.767719
24.5028334153 0.769785
25.0028943494 0.812692
