-24.9380138761 0.561049
-24.4392599622 0.509595
-23.9405057892 0.467562
-23.4417513568 0.456176
-22.9429966651 0.455789
-22.4442417141 0.456613
-21.9454865037 0.468019
-21.4467310339 0.493102
-20.9479753047 0.546886
-20.449219316 0.603686
-19.9504630678 0.665793
-19.4517065601 0.74494
-18.9529497928 0.845241
-18.4541927659 0.906067
-17.9554354795 0.941405
-17.4566779333 0.898141
-16.9579201275 0.832829
-16.4591620619 0.759496
-15.9604037367 0.657603
-15.4616451516 0.579038
-14.9628863067 0.514782
-14.4641272021 0.500779
-13.9653678375 0.501294
-13.466608213 0.530051
-12.9678483286 0.595842
-12.4690881843 0.682019
-11.97032778 0.742055
-11.4715671156 0.765176
-10.9728061912 0.766709
-10.4740450067 0.761504
-9.97528356215 0.754823
-9.47652185742 0.759499
-8.97775989252 0.795969
-8.47899766741 0.871664
-7.98023518207 0.923383
-7.48147243647 0.950658
-6.98270943057 1.00057
-6.48394616435 1.0289
-5.98518263777 1.04123
-5.4864188508 1.01806
-4.98765480342 0.948523
-4.4888904956 0.804929
-3.99012592729 0.670857
-3.49136109848 0.587989
-2.99259600913 0.498092
-2.49383065921 0.376368
-1.99506504869 0.23617
-1.49629917753 0.0979279
-0.997533045725 0.0409058
-0.498766653223 0.0118358
0 0.000676994
0.498766913975 0
0.997534088732 0.00333694
1.4963015243 0.00801919
1.99506922072 0.0198254
2.493837178 0.0292177
2.99260539619 0.0343206
3.49137387532 0.0412049
3.99014261541 0.0462564
4.4889116165 0.0454565
4.98768087861 0.0430765
5.48645040178 0.0471084
5.98522018603 0.0949406
6.4839902314 0.182487
6.98276053792 0.305989
7.48153110562 0.400662
7.98030193452 0.453359
8.47907302467 0.462195
8.97784437608 0.449821
9.47661598879 0.464922
9.97538786283 0.483146
10.4741599982 0.500786
10.972932395 0.531122
11.4717050532 0.595358
11.9704779729 0.718407
12.469251154 0.8619
12.9680245967 0.970088
13.4667983009 1.01519
13.9655722667 0.98876
14.464346494 0.912084
14.963120983 0.814278
15.4618957337 0.69026
15.9606707461 0.564916
16.4594460201 0.481645
16.958221556 0.434992
17.4569973536 0.446082
17.955773413 0.464018
18.4545497343 0.500407
18.9533263175 0.548606
19.4521031625 0.602835
19.9508802695 0.632782
20.4496576385 0.646521
20.9484352694 0.663183
21.4472131624 0.616787
21.9459913174 0.591675
22.4447697346 0.587564
22.9435484138 0.617966
23.4423273552 0.648609
23.9411065588 0.654932
24.4398860245 0.661778
24.9386657525 0.649544
