-24.9366983584 0.938588
-24.4379708247 0.92222
-23.939243029 0.956863
-23.4405149712 0.980768
-22.9417866512 0.968912
-22.443058069 0.945881
-21.9443292246 0.92637
-21.4456001179 0.913466
-20.946870749 0.904652
-20.4481411178 0.894175
-19.9494112242 0.865205
-19.4506810682 0.868573
-18.9519506499 0.848887
-18.4532199691 0.839713
-17.9544890258 0.846324
-17.45575782 0.871322
-16.9570263517 0.89237
-16.4582946208 0.907046
-15.9595626274 0.899424
-15.4608303713 0.843481
-14.9620978526 0.786546
-14.4633650711 0.760908
-13.964632027 0.798223
-13.4658987201 0.779172
-12.9671651504 0.72855
-12.4684313179 0.701912
-11.9696972226 0.691427
-11.4709628644 0.672193
-10.9722282432 0.66386
-10.4734933592 0.676582
-9.97475821215 0.665785
-9.47602280212 0.614288
-8.97728712906 0.596471
-8.47855119294 0.598801
-7.97981499373 0.581684
-7.48107853138 0.537461
-6.98234180589 0.452373
-6.4836048172 0.367918
-5.98486756529 0.298964
-5.48613005014 0.21676
-4.9873922717 0.127565
-4.48865422995 0.0541207
-3.98991592486 0.0163018
-3.49117735639 0.0111268
-2.99243852452 0.0068669
-2.4936994292 0.00430913
-1.99496007042 0
-1.49622044815 0.000558638
-0.997480562335 0.0146905
-0.498740412964 0.012362
0 0.0116314
0.498740676588 0.0168125
0.997481616831 0.0219906
1.49622282076 0.0262821
1.99496428841 0.0300566
2.4937060198 0.0263567
2.99244801498 0.0289568
3.49119027396 0.0489879
3.98993279679 0.0889519
4.48867558349 0.133794
4.98741863409 0.188974
5.48616194863 0.254745
5.98490552713 0.313688
6.48364936963 0.400303
6.98239347616 0.485268
7.48113784674 0.571872
7.97988248142 0.649986
8.47862738022 0.686179
8.97737254316 0.700848
9.4761179703 0.713906
9.97486366164 0.733782
10.4736096172 0.763215
10.9723558371 0.780408
11.4711023213 0.806029
11.9698490698 0.832742
12.4685960827 0.865852
12.9673433599 0.8871
13.4660909016 0.873477
13.9648387078 0.863254
14.4635867785 0.813682
14.9623351137 0.801762
15.4610837134 0.8097
15.9598325777 0.821299
16.4585817067 0.848157
16.9573311003 0.865237
17.4560807585 0.909571
17.9548306815 0.907242
18.4535808692 0.854529
18.9523313217 0.83238
19.451082039 0.828399
19.9498330211 0.76423
20.4485842681 0.687938
20.94733578 0.580964
21.4460875568 0.481439
21.9448395985 0.425043
22.4435919053 0.390048
22.942344477 0.375684
23.4410973138 0.356915
23.9398504157 0.356921
24.4386037827 0.356439
24.9373574149 0.348087
