-25.002485641 1.51547
-24.5024389704 1.52169
-24.0023921755 1.51893
-23.5023452565 1.5033
-23.0022982133 1.43951
-22.5022510459 1.39468
-22.0022037543 1.32547
-21.5021563385 1.21974
-21.0021087985 1.07592
-20.5020611344 0.938665
-20.0020133461 0.832023
-19.5019654336 0.735268
-19.0019173969 0.736558
-18.5018692361 0.746408
-18.001820951 0.733576
-17.5017725418 0.726319
-17.0017240085 0.739863
-16.5016753509 0.778742
-16.0016265692 0.813593
-15.5015776633 0.850308
-15.0015286333 0.874942
-14.5014794791 0.884267
-14.0014302007 0.883043
-13.5013807982 0.884086
-13.0013312715 0.922439
-12.5012816206 0.9498
-12.0012318456 0.921046
-11.5011819464 0.846163
-11.0011319231 0.745563
-10.5010817756 0.645526
-10.0010315039 0.543252
-9.5009811081 0.433514
-9.00093058814 0.330441
-8.50087994402 0.240122
-8.00082917576 0.145886
-7.50077828334 0.0927391
-7.00072726678 0.0689501
-6.50067612607 0.042742
-6.00062486121 0.0381162
-5.50057347221 0.0393386
-5.00052195907 0.0280236
-4.50047032178 0.0186078
-4.00041856035 0.00632715
-3.50036667479 0.000814542
-3.00031466508 0.00306439
-2.50026253124 0.00219109
-2.00021027326 0
-1.50015789114 0.00122499
-1.00010538489 0.0101311
-0.500052754513 0.0452586
0 0.112603
0.500052878642 0.196892
1.00010588141 0.243912
1.50015900831 0.290014
2.00021225933 0.329114
2.50026563448 0.352958
3.00031913375 0.383605
3.50037275715 0.371676
4.00042650466 0.357633
4.5004803763 0.339023
5.00053437205 0.335795
5.50058849192 0.373269
6.00064273591 0.415728
6.50069710401 0.443438
7.00075159622 0.47036
7.50080621255 0.481759
8.00086095298 0.49917
8.50091581753 0.513657
9.00097080618 0.532375
9.50102591894 0.56497
10.0010811558 0.600303
10.5011365168 0.647451
11.0011920018 0.711933
11.501247611 0.814936
12.0013033443 0.874079
12.5013592017 0.835454
13.0014151831 0.789148
13.5014712887 0.757338
14.0015275184 0.79119
14.5015838721 0.837349
15.00164035 0.864052
15.5016969519 0.908893
16.0017536779 0.997036
16.501810528 1.04949
17.0018675022 1.05411
17.5019246005 1.04859
18.0019818229 1.03711
18.5020391693 1.01685
19.0020966399 0.995943
19.5021542345 0.986222
20.0022119532 0.997618
20.5022697959 0.969053
21.0023277628 0.893714
21.5023858537 0.852138
22.0024440687 0.793774
22.5025024077 0.7287
23.0025608709 0.674427
23.5026194581 0.636901
24.0026781693 0.684458
24.5027370047 0.720516
25.0027959641 0.730751
