-25.0026321958 1.26603
-24.5025826047 1.16683
-24.002532889 1.07393
-23.5024830487 0.984237
-23.0024330837 0.909467
-22.5023829942 0.837902
-22.00233278 0.757769
-21.5022824412 0.673275
-21.0022319777 0.595433
-20.5021813897 0.498615
-20.002130677 0.438778
-19.5020798397 0.407789
-19.0020288778 0.401724
-18.5019777913 0.404054
-18.0019265802 0.395688
-17.5018752445 0.392645
-17.0018237842 0.385908
-16.5017721992 0.370997
-16.0017204897 0.347433
-15.5016686555 0.314292
-15.0016166968 0.279048
-14.5015646134 0.259914
-14.0015124055 0.27082
-13.5014600729 0.288415
-13.0014076158 0.30092
-12.501355034 0.308627
-12.0013023277 0.273234
-11.5012494967 0.209121
-11.0011965412 0.131465
-10.5011434611 0.0594776
-10.0010902563 0.0114216
-9.50103692704 0
-9.00098347315 0.00929851
-8.50092989467 0.0292197
-8.0008761916 0.0343541
-7.50082236395 0.0321211
-7.00076841172 0.0867733
-6.50071433491 0.117438
-6.00066013351 0.0919681
-5.50060580754 0.0587517
-5.00055135699 0.056625
-4.50049678186 0.0556835
-4.00044208216 0.0524248
-3.50038725789 0.065252
-3.00033230904 0.0924797
-2.50027723562 0.110457
-2.00022203763 0.128736
-1.50016671507 0.162862
-1.00011126795 0.204583
-0.500055696256 0.207643
0 0.174646
0.500055820818 0.151153
1.0001117662 0.183834
1.50016783614 0.170526
2.00022403064 0.223687
2.5002803497 0.261118
3.00033679331 0.285319
3.50039336148 0.311117
4.00045005421 0.317705
4.50050687148 0.283325
5.00056381331 0.273862
5.50062087969 0.281782
6.00067807061 0.300773
6.50073538609 0.302893
7.0007928261 0.314839
7.50085039067 0.324568
8.00090807977 0.358157
8.50096589342 0.401163
9.0010238316 0.435433
9.50108189433 0.46627
10.0011400816 0.46411
10.5011983934 0.481147
11.0012568297 0.532291
11.5013153906 0.567731
12.001374076 0.591452
12.5014328859 0.612966
13.0014918204 0.627639
13.5015508794 0.654902
14.0016100629 0.669845
14.5016693709 0.67206
15.0017288035 0.664229
15.5017883605 0.643221
16.0018480421 0.622894
16.5019078483 0.598282
17.0019677789 0.549978
17.5020278341 0.514251
18.0020880137 0.490259
18.5021483179 0.471912
19.0022087466 0.483341
19.5022692998 0.490713
20.0023299775 0.480747
20.5023907797 0.462528
21.0024517065 0.43381
21.5025127577 0.415045
22.0025739334 0.41396
22.5026352337 0.434853
23.0026966584 0.473627
23.5027582076 0.519828
24.0028198814 0.578603
24.5028816796 0.66286
25.0029436023 0.782618
