-24.9909502849 0.866962
-24.491135143 0.87609
-23.9913198434 0.861831
-23.4915043862 0.842538
-22.9916887714 0.810768
-22.4918729989 0.788378
-21.9920570688 0.764173
-21.492240981 0.723875
-20.9924247356 0.586398
-20.4926083325 0.466267
-19.9927917717 0.377335
-19.4929750533 0.271925
-18.9931581772 0.15061
-18.4933411433 0.102999
-17.9935239519 0.0854469
-17.4937066027 0.0777675
-16.9938890958 0.0760314
-16.4940714312 0.0759127
-15.9942536089 0.0719571
-15.4944356289 0.0658569
-14.9946174912 0.058295
-14.4947991958 0.0525265
-13.9949807426 0.0459031
-13.4951621317 0.0375544
-12.9953433631 0.0287674
-12.4955244367 0.0320082
-11.9957053526 0.0407339
-11.4958861108 0.0440222
-10.9960667112 0.0364316
-10.4962471539 0.0200511
-9.99642743874 0.0233162
-9.49660756587 0.0326277
-8.99678753522 0.0356776
-8.4969673468 0.034182
-7.99714700061 0.0306358
-7.49732649663 0.0285125
-6.99750583486 0.0125048
-6.4976850153 0.0029374
-5.99786403795 0
-5.4980429028 0.00629119
-4.99822160984 0.0142292
-4.49840015907 0.0187093
-3.99857855049 0.0188906
-3.49875678409 0.0192271
-2.99893485987 0.0195387
-2.49911277781 0.0200781
-1.99929053793 0.0410435
-1.49946814021 0.078891
-0.999645584656 0.126191
-0.499822871253 0.155117
0 0.15714
0.499823029107 0.145876
0.999646216071 0.142565
1.4994695609 0.141354
1.99929306359 0.148108
2.49911672416 0.144958
2.9989405426 0.147265
3.49876451892 0.149176
3.99858865313 0.153192
4.49841294523 0.149603
4.99823739521 0.128274
5.4980620031 0.10161
5.99788676889 0.105615
6.49771169259 0.117661
6.99753677419 0.144415
7.49736201371 0.199359
7.99718741116 0.216395
8.49701296652 0.191204
8.99683867982 0.155765
9.49666455104 0.12554
9.99649058021 0.11252
10.4963167673 0.117095
10.9961431124 0.123755
11.4959696154 0.151394
11.9957962763 0.186029
12.4956230952 0.209649
12.9954500721 0.232198
13.495277207 0.289132
13.9951044998 0.366475
14.4949319506 0.436335
14.9947595593 0.496809
15.4945873261 0.524388
15.9944152509 0.513062
16.4942433336 0.498882
16.9940715743 0.515347
17.4938999731 0.549137
17.9937285298 0.60055
18.4935572446 0.639029
18.9933861174 0.627861
19.4932151481 0.581237
19.993044337 0.524622
20.4928736838 0.437028
20.9927031887 0.406145
21.4925328516 0.377765
21.9923626725 0.384782
22.4921926515 0.381683
22.9920227886 0.3783
23.4918530837 0.369184
23.9916835368 0.367839
24.491514148 0.433644
24.9913449173 0.507001
