-24.9479771414 0.998262
-24.4490236003 0.90563
-23.9500698147 0.804312
-23.4511157845 0.721079
-22.9521615097 0.711903
-22.4532069903 0.738533
-21.9542522262 0.790213
-21.4552972174 0.893793
-20.9563419639 0.970488
-20.4573864657 0.928875
-19.9584307227 0.808152
-19.4594747349 0.645609
-18.9605185023 0.547883
-18.4615620248 0.559509
-17.9626053025 0.594436
-17.4636483353 0.635863
-16.9646911231 0.682473
-16.4657336661 0.707789
-15.966775964 0.697624
-15.467818017 0.641621
-14.9688598249 0.628867
-14.4699013878 0.665545
-13.9709427056 0.772079
-13.4719837783 0.864986
-12.9730246059 0.928925
-12.4740651883 0.925209
-11.9751055256 0.879363
-11.4761456177 0.843896
-10.9771854645 0.789962
-10.4782250661 0.738178
-9.97926442236 0.689244
-9.48030353335 0.612293
-8.98134239901 0.489889
-8.48238101931 0.378001
-7.98341939423 0.275554
-7.48445752374 0.200495
-6.98549540782 0.153656
-6.48653304643 0.1303
-5.98757043957 0.103775
-5.48860758719 0.0616649
-4.98964448927 0.0172906
-4.4906811458 0.000825313
-3.99171755674 0
-3.49275372206 0.000518452
-2.99378964174 0.0167343
-2.49482531576 0.0327247
-1.99586074409 0.0607932
-1.49689592671 0.0962885
-0.99793086358 0.160063
-0.498965554686 0.209457
0 0.261354
0.498965800504 0.331103
0.997931846852 0.393177
1.49689813907 0.453547
1.99586467718 0.511114
2.49483146121 0.564467
2.99379849119 0.677528
3.49276576714 0.80457
3.99173328908 0.903189
4.49070105705 0.987634
4.98966907107 1.05995
5.48863733115 1.10421
5.98760583734 1.12124
6.48657458965 1.1522
6.98554358812 1.17223
7.48451283275 1.19322
7.98348232359 1.21927
8.48245206066 1.22941
8.98142204397 1.22714
9.48039227357 1.22581
9.97936274946 1.22997
10.4783334717 1.21921
10.9773044403 1.21167
11.4762756552 1.2205
11.9752471166 1.21751
12.4742188244 1.16306
12.9731907786 1.08627
13.4721629793 1.01733
13.9711354266 0.955406
14.4701081203 0.901561
14.9690810607 0.886866
15.4680542476 0.972666
15.9670276811 1.08295
16.4660013612 1.14662
16.964975288 1.14008
17.4639494615 1.11609
17.9629238817 1.10149
18.4618985486 1.12435
18.9608734623 1.15115
19.4598486228 1.16376
19.9588240301 1.16294
20.4577996842 1.15857
20.9567755852 1.16371
21.4557517331 1.20366
21.9547281279 1.24872
22.4537047696 1.27844
22.9526816583 1.27175
23.4516587939 1.18393
23.9506361766 1.05965
24.4496138063 0.979788
24.9485916831 0.98619
