-24.9299104012 1.03994
-24.4313188661 1.07663
-23.9327270593 1.12345
-23.4341349806 1.19829
-22.93554263 1.22539
-22.4369500075 1.22023
-21.938357113 1.18926
-21.4397639466 1.10387
-20.9411705081 0.994301
-20.4425767976 0.884923
-19.943982815 0.768511
-19.4453885603 0.719382
-18.9467940334 0.782457
-18.4481992343 0.835093
-17.949604163 0.771932
-17.4510088195 0.701723
-16.9524132036 0.651157
-16.4538173154 0.611899
-15.9552211548 0.604168
-15.4566247219 0.600416
-14.9580280165 0.585522
-14.4594310386 0.540799
-13.9608337882 0.49218
-13.4622362653 0.465828
-12.9636384698 0.435113
-12.4650404017 0.397061
-11.966442061 0.362272
-11.4678434475 0.331096
-10.9692445614 0.292546
-10.4706454025 0.24694
-9.97204597084 0.188475
-9.47344626635 0.163526
-8.97484628901 0.149017
-8.47624603879 0.138749
-7.97764551565 0.130083
-7.47904471955 0.159879
-6.98044365046 0.225675
-6.48184230835 0.334987
-5.98324069318 0.477033
-5.48463880492 0.548478
-4.98603664352 0.545915
-4.48743420897 0.488659
-3.98883150122 0.410554
-3.49022852024 0.303417
-2.99162526599 0.19568
-2.49302173845 0.140133
-1.99441793756 0.100476
-1.49581386331 0.0579108
-0.997209515657 0.0311075
-0.498604894565 0.023448
0 0.0182084
0.498605168072 0.0141333
0.997210609685 0.0119715
1.49581632487 0.0106089
1.99442231367 0.005421
2.49302857612 0
2.99163511224 0.0115204
3.49024192207 0.0445209
3.98884900566 0.0992953
4.48745636302 0.175383
4.98606399421 0.19216
5.48467189924 0.211915
5.98328007816 0.223615
6.481888531 0.237409
6.98049725779 0.275665
7.47910625857 0.332895
7.97771553337 0.380229
8.47632508223 0.413392
8.97493490518 0.445655
9.47354500226 0.462446
9.9721553735 0.482102
10.4707660189 0.496886
10.9693769386 0.521933
11.4679881325 0.546314
11.9665996007 0.577206
12.4652113433 0.612538
12.9638233602 0.643562
13.4624356515 0.662747
13.9610482173 0.669722
14.4596610575 0.666131
14.9582741722 0.658718
15.4568875615 0.650943
15.9555012253 0.636862
16.4541151637 0.624249
16.9527293768 0.633223
17.4513438646 0.623533
17.949958627 0.60722
18.4485736642 0.59865
18.9471889762 0.609483
19.445804563 0.601975
19.9444204246 0.588177
20.4430365611 0.605187
20.9416529726 0.623392
21.4402696589 0.558831
21.9388866203 0.48778
22.4375038567 0.42017
22.9361213681 0.385403
23.4347391546 0.366642
23.9333572162 0.37519
24.431975553 0.371675
24.9305941649 0.372567
