-24.9366908575 1.11262
-24.4379634727 1.12203
-23.9392358259 1.11982
-23.440507917 1.14012
-22.9417797459 1.16755
-22.4430513128 1.16037
-21.9443226175 1.1641
-21.44559366 1.19031
-20.9468644402 1.21683
-20.4481349582 1.20726
-19.9494052139 1.19702
-19.4506752072 1.20804
-18.9519449382 1.21149
-18.4532144069 1.22506
-17.9544836131 1.23144
-17.4557525568 1.24764
-16.9570212381 1.24242
-16.4582896568 1.24784
-15.959557813 1.2455
-15.4608257066 1.25633
-14.9620933376 1.26578
-14.463360706 1.26564
-13.9646278117 1.26553
-13.4658946547 1.22848
-12.967161235 1.22111
-12.4684275525 1.20952
-11.9696936072 1.18942
-11.4709593991 1.1415
-10.9722249281 1.12708
-10.4734901942 1.12731
-9.97475519742 1.10332
-9.47601993768 1.04668
-8.97728441495 0.937876
-8.4785486292 0.786862
-7.97981258041 0.638493
-7.48107626854 0.502614
-6.98233969356 0.363507
-6.48360285545 0.238195
-5.98486575416 0.131374
-5.48612838967 0.0628157
-4.98739076194 0.022518
-4.48865287095 0.0106728
-3.98991471667 0.00600033
-3.49117629906 0.000871412
-2.99243761809 0.00225839
-2.49369867373 0.000281125
-1.99495946595 0
-1.49621999472 0.00425092
-0.997480260002 0.00946362
-0.498740261773 0.0188558
0 0.02687
0.498740525349 0.027992
0.997481314306 0.0354056
1.4962223669 0.063586
1.99496368317 0.0693927
2.49370526313 0.0761965
2.99244710683 0.0691673
3.49118921429 0.0892658
3.98993158554 0.10364
4.48867422062 0.120011
4.98741711955 0.137602
5.48616028237 0.155521
5.98490370911 0.16011
6.4836473998 0.156359
6.98239135446 0.173596
7.48113557314 0.206838
7.97988005586 0.241941
8.47862480265 0.269902
8.97736981355 0.332909
9.47611508859 0.39195
9.97486062778 0.453014
10.4736064312 0.507528
10.9723524988 0.527396
11.4710988307 0.550762
11.9698454269 0.571864
12.4685922874 0.598755
12.9673394122 0.603059
13.4660868014 0.615656
13.9648344551 0.647975
14.4635823732 0.654866
14.9623305557 0.660676
15.4610790028 0.663758
15.9598277144 0.645684
16.4585766906 0.62811
16.9573259313 0.617428
17.4560754367 0.62407
17.9548252068 0.636585
18.4535752416 0.630111
18.952325541 0.625483
19.4510761053 0.623113
19.9498269343 0.628432
20.4485780281 0.634749
20.9473293868 0.636571
21.4460810104 0.65134
21.9448328988 0.661907
22.4435850522 0.696912
22.9423374706 0.645005
23.441090154 0.636144
23.9398431024 0.656449
24.4385963159 0.540957
24.9373497944 0.474045
