-24.9479024603 1.22182
-24.448950402 1.21512
-23.9499980996 1.22152
-23.451045553 1.28884
-22.9520927623 1.28306
-22.4531397274 1.26913
-21.9541864483 1.23941
-21.4552329249 1.20739
-20.9562791573 1.17933
-20.4573251453 1.17048
-19.9583708891 1.15903
-19.4594163885 1.13529
-18.9604616435 1.10283
-18.4615066542 1.04829
-17.9625514204 1.0242
-17.4635959421 1.04079
-16.9646402194 1.06085
-16.4656842522 1.06877
-15.9667280404 1.02329
-15.4677715841 0.937031
-14.9688148832 0.888967
-14.4698579378 0.921211
-13.9709007476 0.924483
-13.4719433129 0.910562
-12.9729856334 0.891394
-12.4740277093 0.870511
-11.9750695404 0.806936
-11.4761111267 0.767391
-10.9771524683 0.761039
-10.478193565 0.730592
-9.97923441694 0.70219
-9.48027502399 0.675924
-8.98131538615 0.611284
-8.4823555034 0.548743
-7.98339537571 0.541699
-7.48443500306 0.53688
-6.98547438542 0.510914
-6.48651352276 0.459113
-5.98755241505 0.382836
-5.48859106228 0.23579
-4.98962946442 0.122832
-4.49066762144 0.0510457
-3.99170553331 0.0271059
-3.49274320001 0.0241457
-2.99378062152 0.0248472
-2.4948177978 0.0288148
-1.99585472884 0.03821
-1.4968914146 0.041154
-0.997927855068 0.0260759
-0.498964050209 0.00560498
0 0.000173119
0.498964295585 0
0.997928836569 0.00671893
1.49689362298 0.0268395
1.99585865485 0.0657064
2.49482393219 0.144095
2.99378945503 0.215233
3.49275522341 0.267669
3.99172123734 0.300919
4.49068749685 0.363851
4.98965400196 0.466775
5.48862075271 0.522605
5.98758774911 0.507757
6.48655499119 0.404231
6.98552247899 0.29631
7.48449021251 0.262095
7.9834581918 0.297716
8.48242641687 0.371926
8.98139488775 0.468415
9.48036360446 0.585632
9.97933256704 0.696223
10.4783017755 0.791659
10.9772712299 0.805147
11.4762409302 0.699249
11.9752108765 0.577748
12.4741810687 0.447118
12.973151507 0.316659
13.4721221913 0.251697
13.9710931217 0.228553
14.4700642982 0.24494
14.9690357207 0.355978
15.4680073895 0.438042
15.9669793044 0.508691
16.4659514655 0.570209
16.9649238728 0.638003
17.4638965263 0.703787
17.9628694261 0.71726
18.4618425722 0.695425
18.9608159646 0.669283
19.4597896034 0.644032
19.9587634885 0.663948
20.4577376201 0.654583
20.956711998 0.605493
21.4556866224 0.445614
21.9546614933 0.320483
22.4536366107 0.298329
22.9526119746 0.300805
23.451587585 0.305879
23.950563442 0.319748
24.4495395456 0.341066
24.9485158958 0.371746
