-24.9343485065 0.397777
-24.4356680354 0.429356
-23.9369872996 0.454366
-23.438306299 0.470554
-22.9396250335 0.495199
-22.4409435033 0.520494
-21.9422617081 0.526
-21.443579648 0.521282
-20.944897323 0.522011
-20.446214733 0.529917
-19.947531878 0.54013
-19.448848758 0.548235
-18.9501653729 0.547192
-18.4514817227 0.555024
-17.9527978074 0.564952
-17.4541136268 0.588025
-16.9554291811 0.606409
-16.4567444702 0.61345
-15.958059494 0.632213
-15.4593742524 0.659617
-14.9606887456 0.679771
-14.4620029734 0.723442
-13.9633169358 0.773731
-13.4646306327 0.814741
-12.9659440642 0.854436
-12.4672572302 0.890477
-11.9685701307 0.908931
-11.4698827656 0.915683
-10.971195135 0.905993
-10.4725072387 0.861222
-9.97381907671 0.803427
-9.47513064906 0.777348
-8.9764419557 0.75133
-8.47775299659 0.8018
-7.97906377168 0.840515
-7.48037428096 0.878486
-6.98168452439 0.896556
-6.48299450194 0.854463
-5.98430421357 0.770539
-5.48561365926 0.55736
-4.98692283896 0.33045
-4.48823175265 0.161238
-3.9895404003 0.0510322
-3.49084878187 0.0006362
-2.99215689733 0
-2.49346474665 0.0432964
-1.9947723298 0.12961
-1.49607964674 0.245205
-0.99738669744 0.365179
-0.498693481872 0.467691
0 0.523787
0.498693748207 0.541102
0.997387762781 0.530867
1.49608204375 0.52293
1.99477659116 0.535567
2.49347140503 0.546454
2.9921664854 0.545444
3.49086183229 0.523658
3.98955744574 0.484274
4.48825332579 0.435866
4.98694947247 0.384328
5.4856458858 0.353243
5.98434256582 0.335277
6.48303951256 0.333369
6.98173672606 0.334397
7.48043420634 0.339988
7.97913195344 0.354112
8.47782996739 0.370509
8.97652824822 0.383484
9.47522679597 0.390477
9.97392561067 0.383087
10.4726246923 0.359211
10.971324041 0.336588
11.4700236568 0.319472
11.9687235396 0.315327
12.4674236895 0.320193
12.9661241065 0.338428
13.4648247907 0.372773
13.9635257422 0.435401
14.4622269608 0.506367
14.9609284468 0.582655
15.4596302 0.663794
15.9583322206 0.666123
16.4570345085 0.662064
16.9557370638 0.617287
17.4544398866 0.55511
17.9531429768 0.502452
18.4518463345 0.439586
18.9505499597 0.39748
19.4492538525 0.376508
19.9479580129 0.411812
20.4466624408 0.456319
20.9453671365 0.481862
21.4440720998 0.514326
21.9427773309 0.555739
22.4414828297 0.614003
22.9401885962 0.659616
23.4388946306 0.671567
23.9376009328 0.667086
24.4363075029 0.666028
24.935014341 0.66319
