-24.9420295682 0.905191
-24.4431951892 0.987347
-23.9443605571 0.92714
-23.4455256719 0.877295
-22.9466905335 0.801537
-22.4478551419 0.815854
-21.9490194972 1.01032
-21.4501835991 0.883025
-20.9513474478 0.803792
-20.4525110431 0.853832
-19.9536743852 0.896487
-19.4548374738 0.933521
-18.9560003091 0.905187
-18.4571628909 0.901387
-17.9583252193 0.901433
-17.4594872942 0.910715
-16.9606491156 0.87702
-16.4618106835 0.837248
-15.9629719978 0.82949
-15.4641330584 0.870413
-14.9652938655 0.874795
-14.4664544189 0.868263
-13.9676147187 0.77544
-13.4687747647 0.684543
-12.969934557 0.592104
-12.4710940955 0.528876
-11.9722533802 0.507254
-11.4734124111 0.477455
-10.9745711881 0.415228
-10.4757297113 0.354806
-9.97688798053 0.364662
-9.47804599583 0.353132
-8.97920375717 0.278849
-8.48036126451 0.20504
-7.98151851782 0.127422
-7.48267551708 0.0335359
-6.98383226225 0
-6.48498875331 0.00643776
-5.98614499024 0.0294315
-5.48730097299 0.0513673
-4.98845670155 0.0652382
-4.48961217588 0.089959
-3.99076739596 0.0952953
-3.49192236175 0.095248
-2.99307707324 0.108235
-2.49423153038 0.136556
-1.99538573316 0.163323
-1.49653968153 0.179915
-0.997693375486 0.179095
-0.498846814985 0.169603
0 0.144859
0.498847069495 0.106481
0.997694393529 0.0970164
1.49654197213 0.127372
1.99538980533 0.158927
2.49423789315 0.165201
2.99308623563 0.160826
3.49193483279 0.160582
3.99078368466 0.151853
4.48963279127 0.140638
4.98848215264 0.160051
5.48733176881 0.142625
5.98618163981 0.127942
6.48503176565 0.136683
6.98388214638 0.167583
7.48273278202 0.204746
7.98158367259 0.258099
8.48043481813 0.325888
8.97928621867 0.411208
9.47813787423 0.434036
9.97698978483 0.442366
10.4758419505 0.451559
10.9746943713 0.451554
11.4735470473 0.438781
11.9723999783 0.41594
12.4712531646 0.394335
12.9701066062 0.380789
13.4689603029 0.36906
13.967814255 0.368895
14.4666684623 0.383918
14.965522925 0.421322
15.464377643 0.464064
15.9632326165 0.517668
16.4620878453 0.575396
16.9609433296 0.597783
17.4597990694 0.607969
17.9586550647 0.609679
18.4575113155 0.601008
18.9563678219 0.567383
19.4552245838 0.525905
19.9540816014 0.498713
20.4529388746 0.482938
20.9517964035 0.477915
21.4506541881 0.459923
21.9495122285 0.431036
22.4483705246 0.42522
22.9472290764 0.423051
23.4460878841 0.415703
23.9449469477 0.394444
24.4438062671 0.372689
24.9426658424 0.356753
