-24.9419916522 0.247937
-24.4431580258 0.270679
-23.9443241465 0.292283
-23.4454900143 0.310246
-22.9466556292 0.305678
-22.4478209912 0.285029
-21.9489861001 0.265307
-21.450150956 0.245771
-20.9513155589 0.234716
-20.4524799087 0.227406
-19.9536440054 0.22418
-19.454807849 0.183541
-18.9559714394 0.159735
-18.4571347766 0.14584
-17.9582978606 0.125165
-17.4594606914 0.10915
-16.9606232689 0.115849
-16.4617855931 0.132482
-15.9629476639 0.164741
-15.4641094814 0.169037
-14.9652710455 0.16368
-14.4664323562 0.101751
-13.9675934134 0.0927691
-13.4687542172 0.0936693
-12.9699147674 0.0882775
-12.4710750641 0.0753826
-11.9722351073 0.0724002
-11.4733948969 0.0721267
-10.9745544328 0.0699287
-10.4757137151 0.0580985
-9.97687274373 0.0755376
-9.47803151865 0.0912241
-8.97919003983 0.0886448
-8.48034830725 0.0806431
-7.98150632088 0.0581097
-7.48266408069 0.0256493
-6.98382158665 0.0159475
-6.48497883873 0.00724442
-5.98613583691 0.0053107
-5.48729258115 0.00460229
-4.98844907143 0.00312617
-4.48960530772 0.00426942
-3.99076128999 0.0058624
-3.49191701821 0.00517794
-2.99307249235 0
-2.49422771239 0.00961312
-1.9953826783 0.0735687
-1.49653739004 0.124861
-0.997691847587 0.14929
-0.498846050918 0.170459
0 0.185407
0.498846305194 0.179309
0.997692864695 0.174809
1.49653967853 0.171496
1.99538674672 0.157353
2.49423406931 0.125777
2.99308164632 0.0892689
3.49192947777 0.041542
3.9907775637 0.0288486
4.48962590413 0.0377718
4.9884744991 0.0330275
5.48732334863 0.0456289
5.98617245275 0.064612
6.48502181148 0.0767426
6.98387142487 0.0600756
7.48272129293 0.0611949
7.98157141569 0.100969
8.48042179318 0.125105
8.97927242544 0.231678
9.47812331248 0.271505
9.97697445434 0.326068
10.475825851 0.378869
10.9746775026 0.373423
11.4735294091 0.417951
11.9723815705 0.440813
12.4712339869 0.459554
12.9700866583 0.497839
13.4689395846 0.561645
13.9677927661 0.583201
14.4666462026 0.5714
14.9654998941 0.568029
15.4643538409 0.542115
15.9632080428 0.524319
16.4620624998 0.51587
16.9609172121 0.503194
17.4597721796 0.490469
17.9586274024 0.496094
18.4574828805 0.504399
18.9563386139 0.519909
19.4551946027 0.552772
19.9540508469 0.588855
20.4529073464 0.613655
20.9517641014 0.6134
21.4506211119 0.611995
21.9494783779 0.631306
22.4483358994 0.650753
22.9471936765 0.663678
23.4460517091 0.666053
23.9449099973 0.678026
24.4437685412 0.678164
24.9426273408 0.679372
