-24.9320008213 0.867373
-24.4333674658 0.817268
-23.934733839 0.803781
-23.4360999408 0.880252
-22.9374657713 0.991505
-22.4388313302 1.11218
-21.9401966178 1.24889
-21.4415616338 1.38638
-20.9429263782 1.46507
-20.4442908511 1.50285
-19.9456550524 1.4551
-19.447018982 1.31983
-18.94838264 1.22245
-18.4497460263 1.19593
-17.9511091408 1.23617
-17.4524719835 1.27972
-16.9538345545 1.29196
-16.4551968536 1.28613
-15.9565588808 1.30895
-15.4579206361 1.35006
-14.9592821194 1.40761
-14.4606433308 1.47649
-13.9620042702 1.52479
-13.4633649375 1.49848
-12.9647253328 1.45523
-12.4660854559 1.39663
-11.9674453069 1.35569
-11.4688048857 1.32651
-10.9701641923 1.30357
-10.4715232267 1.29305
-9.97288198875 1.25615
-9.47424047852 1.20208
-8.97559869593 1.16739
-8.47695664097 1.11493
-7.9783143136 1.04087
-7.47967171377 0.965001
-6.98102884147 0.879345
-6.48238569665 0.861286
-5.98374227929 0.846835
-5.48509858934 0.82598
-4.98645462678 0.798787
-4.48781039157 0.752081
-3.98916588368 0.686611
-3.49052110307 0.612547
-2.99187604972 0.54417
-2.49323072358 0.479746
-1.99458512463 0.435709
-1.49593925283 0.396499
-0.997293108147 0.389428
-0.498646690548 0.419778
0 0.434619
0.498646963531 0.438499
0.997294200077 0.432808
1.49594170967 0.417406
1.99458949235 0.407722
2.49323754815 0.404555
2.99188587709 0.410268
3.49053447922 0.423878
3.98918335456 0.425193
4.48783250316 0.414061
4.98648192503 0.442544
5.48513162022 0.465047
5.98378158877 0.469981
6.48243183069 0.455906
6.98108234604 0.410291
7.47973313483 0.363337
7.9783841971 0.319266
8.47703553289 0.286008
8.97568714223 0.261426
9.47433902516 0.262847
9.9729911817 0.238054
10.4716436119 0.234504
10.9702963158 0.230006
11.4689492933 0.199431
11.9676025447 0.200885
12.4662560698 0.214097
12.9649098687 0.210607
13.4635639415 0.22385
13.9622182882 0.211226
14.4608729088 0.170215
14.9595278033 0.109582
15.4581829718 0.0693041
15.9568384144 0.00973728
16.4554941309 0
16.9541501216 0.0593364
17.4528063864 0.112821
17.9514629253 0.136399
18.4501197384 0.166971
18.9487768257 0.275049
19.4474341873 0.381646
19.9460918231 0.491742
20.4447497333 0.583727
20.9434079178 0.633114
21.4420663767 0.667223
21.94072511 0.701571
22.4393841177 0.741086
22.9380433999 0.780162
23.4367029567 0.819688
23.935362788 0.856328
24.4340228938 0.886107
24.9326832743 0.917808
