-24.930375625 0.445107
-24.4317747525 0.454173
-23.9331736096 0.469184
-23.4345721961 0.485219
-22.9359705121 0.486781
-22.4373685575 0.449152
-21.9387663323 0.404016
-21.4401638365 0.380725
-20.94156107 0.361922
-20.4429580328 0.344372
-19.9443547248 0.328052
-19.4457511461 0.306871
-18.9471472965 0.292295
-18.4485431761 0.285833
-17.9499387848 0.283185
-17.4513341226 0.284409
-16.9527291895 0.273163
-16.4541239853 0.260816
-15.9555185102 0.24446
-15.4569127639 0.246598
-14.9583067466 0.251134
-14.4597004582 0.250248
-13.9610938986 0.262509
-13.4624870678 0.349576
-12.9638799658 0.439569
-12.4652725925 0.493409
-11.9666649479 0.592614
-11.468057032 0.689074
-10.9694488448 0.824975
-10.4708403861 0.869403
-9.97223165598 0.855255
-9.47362265441 0.841426
-8.97501338134 0.82524
-8.47640383673 0.742091
-7.97779402055 0.649881
-7.47918393276 0.551837
-6.98057357334 0.405295
-6.48196294224 0.198343
-5.98335203943 0.058897
-5.48474086488 0.0182504
-4.98612941855 0.00967269
-4.48751770041 0.00503196
-3.98890571042 0.00264037
-3.49029344856 0.00104494
-2.99168091478 0
-2.49306810905 0.0160215
-1.99445503135 0.0314111
-1.49584168162 0.0399986
-0.997228059843 0.0407645
-0.498614165981 0.0420326
0 0.041247
0.498614438135 0.0377354
0.997229148457 0.0330134
1.495844131 0.0301123
1.9944593858 0.0259632
2.49307491289 0.0269732
2.99169071231 0.0330226
3.49030678408 0.0565382
3.98892312825 0.0892277
4.48753974485 0.110028
4.9861566339 0.118853
5.48477379545 0.120973
5.98339122953 0.120874
6.48200893618 0.120463
6.98062691542 0.134622
7.47924516729 0.156687
7.97786369183 0.169974
8.47648248907 0.179731
8.97510155904 0.176905
9.47372090178 0.177313
9.97234051733 0.187284
10.4709604057 0.192243
10.969580567 0.193028
11.4682010011 0.196002
11.9668217082 0.201462
12.4654426883 0.212696
12.9640639414 0.218622
13.4626854675 0.22682
13.9613072667 0.243599
14.459929339 0.269922
14.9585516844 0.286192
15.457174303 0.317018
15.9557971948 0.34734
16.4544203599 0.367291
16.9530437983 0.37772
17.4516675099 0.401577
17.9502914949 0.419446
18.4489157533 0.449216
18.9475402851 0.492523
19.4461650904 0.559656
19.9447901691 0.622016
20.4434155214 0.667017
20.9420411472 0.7002
21.4406670466 0.707299
21.9392932196 0.708876
22.4379196663 0.720631
22.9365463866 0.744702
23.4351733807 0.733026
23.9338006485 0.710865
24.4324281901 0.687061
24.9310560055 0.706113
