-25.0026566568 1.27255
-24.5026065783 1.26065
-24.0025563751 1.26337
-23.5025060471 1.29554
-23.0024555945 1.31359
-22.5024050172 1.30965
-22.0023543152 1.25863
-21.5023034885 1.15326
-21.0022525371 0.991649
-20.5022014611 0.826896
-20.0021502603 0.70509
-19.5020989349 0.614239
-19.0020474847 0.546185
-18.5019959099 0.489398
-18.0019442104 0.462245
-17.5018923862 0.473043
-17.0018404374 0.463563
-16.5017883638 0.43971
-16.0017361656 0.415749
-15.5016838427 0.378624
-15.0016313951 0.334671
-14.5015788229 0.291853
-14.0015261259 0.266011
-13.5014733043 0.261467
-13.0014203581 0.265594
-12.5013672871 0.269657
-12.0013140915 0.276543
-11.5012607713 0.287355
-11.0012073263 0.312119
-10.5011537567 0.329074
-10.0011000625 0.307461
-9.50104624355 0.288895
-9.00099229997 0.256975
-8.50093823173 0.208213
-8.00088403882 0.159209
-7.50082972127 0.108086
-7.00077527905 0.0904866
-6.50072071219 0.0747142
-6.00066602067 0.070435
-5.50061120449 0.0591129
-5.00055626367 0.051589
-4.5005011982 0.0556329
-4.00044600809 0.0693759
-3.50039069332 0.0882949
-3.00033525392 0.125565
-2.50027968986 0.160426
-2.00022400117 0.172076
-1.50016818783 0.179433
-1.00011224986 0.18231
-0.500056187249 0.180077
0 0.161918
0.500056311884 0.133891
1.0001127484 0.107711
1.50016930955 0.0637837
2.00022599534 0.0196697
2.50028280575 0
3.00033974079 0.00137239
3.50039680046 0.0105779
4.00045398475 0.00365302
4.50051129367 0.0355971
5.00056872721 0.138563
5.50062628538 0.308525
6.00068396816 0.438979
6.50074177556 0.523474
7.00079970758 0.54821
7.50085776422 0.526921
8.00091594547 0.520379
8.50097425134 0.532292
9.00103268182 0.562706
9.5010912369 0.595888
10.0011499166 0.633883
10.5012087209 0.686297
11.0012676498 0.648413
11.5013267033 0.619939
12.0013858815 0.619563
12.5014451842 0.645093
13.0015046115 0.683981
13.5015641634 0.694363
14.0016238399 0.714387
14.5016836411 0.735778
15.0017435668 0.740216
15.5018036171 0.742974
16.001863792 0.746659
16.5019240915 0.746955
17.0019845155 0.721931
17.5020450642 0.701918
18.0021057375 0.684842
18.5021665353 0.650118
19.0022274577 0.611647
19.5022885047 0.538569
20.0023496763 0.538435
20.5024109725 0.566172
21.0024723932 0.559117
21.5025339385 0.510794
22.0025956084 0.481557
22.5026574029 0.477194
23.0027193219 0.511006
23.5027813655 0.534342
24.0028435337 0.510991
24.5029058265 0.499639
25.0029682438 0.537016
