-24.942786154 1.0959
-24.4439366213 1.10003
-23.9450868365 1.11958
-23.4462367993 1.13904
-22.9473865099 1.1449
-22.4485359682 1.1626
-21.9496851742 1.19997
-21.4508341278 1.22325
-20.951982829 1.22866
-20.4531312779 1.23598
-19.9542794742 1.22754
-19.4554274181 1.18928
-18.9565751095 1.15264
-18.4577225484 1.14063
-17.9588697347 1.14599
-17.4600166684 1.13777
-16.9611633495 1.13136
-16.462309778 1.12953
-15.9634559538 1.13947
-15.4646018769 1.14853
-14.9657475472 1.15363
-14.4668929648 1.16369
-13.9680381297 1.17476
-13.4691830417 1.18311
-12.9703277009 1.18525
-12.4714721072 1.18126
-11.9726162606 1.18104
-11.4737601611 1.17798
-10.9749038086 1.17732
-10.4760472032 1.13726
-9.97719034471 1.04337
-9.47833323321 0.901998
-8.97947586865 0.78364
-8.48061825099 0.664431
-7.98176038021 0.536658
-7.48290225628 0.465986
-6.98404387917 0.441584
-6.48518524885 0.441352
-5.98632636529 0.469297
-5.48746722848 0.499206
-4.98860783837 0.47992
-4.48974819494 0.429552
-3.99088829816 0.361551
-3.492028148 0.308772
-2.99316774444 0.268451
-2.49430708745 0.230002
-1.99544617699 0.202581
-1.49658501305 0.202476
-0.997723595587 0.215873
-0.498861924581 0.207131
0 0.138447
0.498862178182 0.0558593
0.997724609994 0.0112743
1.49658729546 0.000706392
1.99545023462 0.00298583
2.49431342749 0.00464116
2.9931768741 0.0033433
3.49204057449 0.00441641
3.99090452867 0.00567882
4.48976873668 0
4.98863319854 0.00608924
5.48749791429 0.0882659
5.98636288394 0.249894
6.48522810754 0.387084
6.9840935851 0.508017
7.48295931665 0.660873
7.98182530223 0.807316
8.48069154186 0.939214
8.97955803557 1.05614
9.47842478339 1.17793
9.97729178534 1.275
10.4761590415 1.28904
10.9750265518 1.21859
11.4738943163 1.04779
11.9727623351 0.878937
12.4716306081 0.750327
12.9704991354 0.65691
13.4693679171 0.548888
13.9682369532 0.420377
14.4671062436 0.261592
14.9659757884 0.106036
15.4648455877 0.0349658
15.9637156415 0.0290036
16.4625859497 0.0359537
16.9614565125 0.0415873
17.4603273298 0.0423908
17.9591984017 0.100374
18.4580697283 0.229161
18.9569413094 0.407343
19.4558131452 0.586315
19.9546852358 0.695751
20.453557581 0.789251
20.952430181 0.905216
21.4513030358 0.990026
21.9501761453 1.00794
22.4490495098 1.03446
22.947923129 1.07229
23.4467970032 1.1073
23.9456711323 1.12511
24.4445455163 1.14918
24.9434201553 1.18819
