-24.935313264 0.908907
-24.4366134919 0.817739
-23.9379134553 0.681616
-23.4392131542 0.511853
-22.9405125884 0.322266
-22.4418117581 0.178288
-21.9431106631 0.101709
-21.4444093034 0.0714769
-20.945707679 0.0651464
-20.4470057899 0.109696
-19.948303636 0.14437
-19.4496012173 0.166082
-18.9508985338 0.188576
-18.4521955854 0.152741
-17.9534923721 0.111136
-17.4547888939 0.0935396
-16.9560851507 0.0876168
-16.4573811425 0.0918942
-15.9586768693 0.103348
-15.459972331 0.11799
-14.9612675276 0.145171
-14.4625624591 0.208849
-13.9638571255 0.279953
-13.4651515266 0.33332
-12.9664456625 0.348711
-12.4677395332 0.367658
-11.9690331386 0.370358
-11.4703264787 0.347153
-10.9716195535 0.355237
-10.4729123628 0.376253
-9.97420490675 0.380498
-9.47549718525 0.361084
-8.97678919828 0.325879
-8.47808094579 0.268439
-7.97937242777 0.168717
-7.48066364418 0.0766881
-6.98195459498 0.0214431
-6.48324528014 0
-5.98453569964 0.00310426
-5.48582585344 0.0121382
-4.98711574151 0.0207365
-4.48840536382 0.0281867
-3.98969472033 0.0324886
-3.49098381102 0.0336137
-2.99227263584 0.0316245
-2.49356119478 0.0304738
-1.99484948779 0.0398943
-1.49613751486 0.0756559
-0.997425275932 0.138718
-0.49871277099 0.171428
0 0.166257
0.498713037072 0.137801
0.997426340256 0.115588
1.49613990959 0.101252
1.99485374509 0.094453
2.4935678468 0.0919123
2.99228221476 0.0913302
3.49099684898 0.0972655
3.98971174951 0.0989712
4.48842691637 0.103509
4.9871423496 0.107259
5.48585804923 0.11212
5.98457401529 0.120078
6.48329024781 0.131892
6.98200674682 0.146949
7.48072351236 0.155533
7.97944054446 0.170558
8.47815784314 0.194596
8.97687540845 0.23842
9.47559324041 0.294247
9.97431133905 0.33852
10.4730297044 0.414731
10.9717483365 0.50131
11.4704672354 0.587679
11.9691864011 0.691118
12.4679058336 0.741215
12.966625533 0.778373
13.4653454993 0.771494
13.9640657326 0.763573
14.4627862328 0.762899
14.961507 0.778886
15.4602280343 0.79966
15.9589493356 0.82861
16.457670904 0.849883
16.9563927395 0.883225
17.4551148422 0.922793
17.9538372121 0.9569
18.4525598492 0.984608
18.9512827536 0.989777
19.4500059252 0.973706
19.9487293642 0.953515
20.4474530705 0.922369
20.9461770442 0.915836
21.4449012852 0.923299
21.9436257938 0.937824
22.4423505698 0.904012
22.9410756133 0.836911
23.4398009243 0.747265
23.938526503 0.63866
24.4372523492 0.58397
24.935978463 0.555971
