-24.9343545615 0.431536
-24.4356739702 0.438159
-23.9369931142 0.457829
-23.4383119934 0.456304
-22.9396306077 0.442804
-22.4409489571 0.440674
-21.9422670416 0.443034
-21.4435848612 0.448114
-20.9449024157 0.487634
-20.4462197053 0.537751
-19.9475367298 0.534497
-19.4488534893 0.531772
-18.9501699836 0.558865
-18.4514862128 0.589361
-17.9528021768 0.617779
-17.4541178756 0.645207
-16.9554333092 0.670243
-16.4567484774 0.681812
-15.9580633804 0.694741
-15.4593780181 0.698446
-14.9606923903 0.687605
-14.4620064972 0.682264
-13.9633203386 0.682398
-13.4646339146 0.67888
-12.965947225 0.658195
-12.46726027 0.649239
-11.9685730493 0.657727
-11.4698855631 0.663105
-10.9711978112 0.705878
-10.4725097937 0.751706
-9.97382151046 0.800386
-9.4751329615 0.819993
-8.97644414678 0.77729
-8.47775506627 0.732652
-7.97906571994 0.677312
-7.48037610775 0.600048
-6.98168622967 0.462696
-6.48299608566 0.346527
-5.98430567571 0.276937
-5.48561499976 0.250343
-4.9869240578 0.214557
-4.48823284978 0.170366
-3.98954137568 0.138935
-3.49084963547 0.0710039
-2.9921576291 0.00902308
-2.49346535656 0
-1.9947728178 0.0214554
-1.4960800128 0.0727919
-0.997386941522 0.16899
-0.498693603932 0.240087
0 0.312538
0.498693870306 0.44237
0.997388007019 0.54769
1.49608241017 0.567071
1.99477707979 0.545474
2.49347201592 0.512465
2.99216721858 0.511116
3.49086268781 0.546346
3.98955842364 0.562966
4.4882544261 0.575336
4.98695069523 0.589936
5.48564723105 0.599172
5.9843440336 0.566362
6.48304110291 0.502878
6.98173843902 0.424788
7.48043604195 0.380939
7.97913391173 0.361296
8.47783204841 0.357894
8.97653045201 0.354555
9.47522912256 0.348915
9.9739280601 0.342661
10.4726272647 0.340043
10.9713267363 0.337982
11.470026475 0.347037
11.9687264808 0.370878
12.4674267537 0.384651
12.9661272938 0.373173
13.4648281012 0.325916
13.9635291758 0.277819
14.4622305176 0.255176
14.9609321268 0.249589
15.4596340033 0.260936
15.9583361472 0.286567
16.4570385585 0.348041
16.9557412372 0.429048
17.4544441833 0.501216
17.953147397 0.562644
18.4518508782 0.57585
18.950554627 0.570815
19.4492586434 0.54631
19.9479629274 0.496529
20.446667479 0.47601
20.9453722984 0.470716
21.4440773855 0.487124
21.9427827403 0.510383
22.4414883629 0.537604
22.9401942533 0.563806
23.4389004116 0.581953
23.9376068378 0.587198
24.4363135319 0.610142
24.9350204939 0.630066
