-24.9343908244 0.684754
-24.4357095136 0.688375
-23.9370279379 0.713976
-23.4383460971 0.763652
-22.9396639912 0.825727
-22.4409816202 0.89006
-21.942298984 0.951214
-21.4436160827 0.993932
-20.9449329161 1.03704
-20.4462494843 1.07197
-19.9475657872 1.12457
-19.4488818248 1.09788
-18.9501975971 1.07663
-18.4515131039 1.05944
-17.9528283454 1.061
-17.4541433214 1.04175
-16.9554580319 1.00487
-16.456772477 1.01484
-15.9580866564 1.02956
-15.4594005703 1.05808
-14.9607142186 1.07082
-14.4620276013 1.05467
-13.9633407183 1.03993
-13.4646535696 1.03925
-12.9659661551 1.05644
-12.4672784749 1.08602
-11.9685905289 1.01728
-11.4699023171 0.872698
-10.9712138393 0.773539
-10.4725250957 0.697264
-9.97383608617 0.636495
-9.47514681066 0.556732
-8.97645726916 0.452864
-8.47776746163 0.312433
-7.97907738803 0.181102
-7.48038704835 0.0903321
-6.98169644254 0.0290841
-6.48300557057 0.0137633
-5.98431443241 0.00648756
-5.48562302804 0.00399428
-4.9869313574 0.00200428
-4.48823942048 0.00114364
-3.98954721725 0
-3.49085474766 0.0517098
-2.99216201169 0.156173
-2.4934690093 0.257304
-1.99477574046 0.337456
-1.49608220515 0.364949
-0.997388403321 0.351126
-0.498694334948 0.281059
0 0.205652
0.498694601559 0.16276
0.997389469758 0.138872
1.49608460463 0.130373
1.99478000621 0.130267
2.49347567453 0.132339
2.99217160961 0.134503
3.4908678115 0.138332
3.98956428023 0.141539
4.48826101582 0.146396
4.98695801831 0.151024
5.48565528773 0.158742
5.98435282411 0.16388
6.48305062749 0.177783
6.9817486979 0.212437
7.48044703537 0.275858
7.97914563993 0.37952
8.47784451161 0.515467
8.97654365045 0.652245
9.47524305648 0.777636
9.97394272973 0.880057
10.4726426702 0.972133
10.971342878 1.02455
11.4700433531 1.073
11.9687440956 1.10256
12.4674451054 1.12926
12.9661463826 1.11378
13.4648479273 1.0772
13.9635497395 1.05209
14.4622518192 1.02609
14.9609541664 1.02495
15.4596567812 1.00222
15.9583596636 0.93372
16.4570628136 0.866117
16.9557662313 0.831384
17.4544699167 0.822655
17.9531738699 0.822716
18.4518780908 0.822248
18.9505825795 0.841017
19.449287336 0.857721
19.9479923604 0.8593
20.4466976527 0.920576
20.9454032129 0.954978
21.4441090411 0.98937
21.9428151372 1.02637
22.4415215014 1.00772
22.9402281336 0.989642
23.438935034 0.979448
23.9376422024 0.971738
24.436349639 0.957196
24.9350573437 0.938286
