-24.9318742119 0.765951
-24.4332433141 0.791097
-23.9346121481 0.798514
-23.4359807137 0.803462
-22.937349011 0.830033
-22.4387170399 0.859184
-21.9400848003 0.871239
-21.4414522922 0.88082
-20.9428195157 0.849656
-20.4441864706 0.827719
-19.945553157 0.822605
-19.4469195748 0.826548
-18.9482857239 0.832179
-18.4496516044 0.823871
-17.9510172161 0.811679
-17.4523825591 0.835644
-16.9537476334 0.848019
-16.4551124388 0.854316
-15.9564769755 0.812884
-15.4578412432 0.794318
-14.959205242 0.781233
-14.4605689719 0.754331
-13.9619324329 0.718805
-13.4632956248 0.713954
-12.9646585477 0.733591
-12.4660212015 0.726719
-11.9673835862 0.705086
-11.4687457018 0.677407
-10.9701075482 0.627253
-10.4714691253 0.551083
-9.9728304333 0.485874
-9.47419147197 0.428425
-8.97555224133 0.379892
-8.47691274136 0.329381
-7.978272972 0.293755
-7.47963293325 0.265734
-6.98099262504 0.247067
-6.48235204736 0.218886
-5.98371120018 0.180592
-5.48507008345 0.159518
-4.98642869714 0.12498
-4.48778704122 0.0753268
-3.98914511566 0.0322403
-3.49050292043 0.0136224
-2.99186045548 0.0165304
-2.49321772079 0.0181872
-1.99457471632 0.00599036
-1.49593144204 0.00452114
-0.997287897916 0
-0.498644083914 0.00560905
0 0.00561436
0.498644353859 0.0152482
0.997288977696 0.0590983
1.49593387155 0.110217
1.99457903544 0.149671
2.49322446941 0.170599
2.9918701735 0.169971
3.49051614773 0.157555
3.98916239214 0.125696
4.48780890676 0.0869152
4.98645569163 0.0600067
5.48510274678 0.0461797
5.98375007224 0.0869463
6.48239766805 0.165806
6.98104553423 0.216587
7.47969367083 0.248365
7.97834207788 0.215334
8.47699075541 0.17645
8.97563970344 0.139962
9.47428892203 0.120981
9.97293841119 0.111761
10.471588171 0.109161
10.9702382014 0.109517
11.4688885025 0.1244
11.9675390743 0.175959
12.4661899169 0.162002
12.9648410302 0.145712
13.4634924144 0.164777
13.9621440694 0.185115
14.4607959953 0.201799
14.9594481921 0.220789
15.4581006598 0.247647
15.9567533985 0.276923
16.4554064083 0.308054
16.954059689 0.335246
17.4527132409 0.357442
17.9513670639 0.368099
18.450021158 0.376726
18.9486755233 0.410125
19.4473301598 0.450957
19.9459850675 0.494221
20.4446402466 0.534987
20.9432956969 0.579718
21.4419514186 0.610122
21.9406074117 0.631296
22.4392636762 0.654787
22.9379202121 0.678513
23.4365770195 0.708681
23.9352340984 0.746364
24.4338914488 0.797422
24.9325490709 0.834566
