-24.9960863543 0.694875
-24.4961682897 0.632133
-23.9962500755 0.636593
-23.4963317119 0.643984
-22.9964131989 0.629356
-22.4964945364 0.579046
-21.9965757244 0.508095
-21.496656763 0.448659
-20.9967376521 0.398576
-20.4968183917 0.336103
-19.9968989819 0.321756
-19.4969794226 0.318807
-18.9970597138 0.360793
-18.4971398555 0.409102
-17.9972198478 0.41862
-17.4972996906 0.421782
-16.9973793839 0.417184
-16.4974589277 0.415747
-15.997538322 0.425343
-15.4976175668 0.487533
-14.9976966622 0.516489
-14.4977756081 0.541801
-13.9978544044 0.573407
-13.4979330513 0.54783
-12.9980115487 0.491177
-12.4980898965 0.440451
-11.9981680949 0.425476
-11.4982461438 0.395197
-10.9983240431 0.33651
-10.498401793 0.276636
-9.99847939331 0.236742
-9.49855684414 0.207229
-8.99863414545 0.168683
-8.49871129725 0.128848
-7.99878829953 0.0927124
-7.49886515229 0.0854006
-6.99894185553 0.0740869
-6.49901840925 0.0629218
-5.99909481344 0.0628426
-5.4991710681 0.0571248
-4.99924717323 0.044497
-4.49932312883 0.0249586
-3.9993989349 0.0121061
-3.49947459143 0.00795281
-2.99955009842 0.00300467
-2.49962545588 0
-1.99970066379 0.00316516
-1.49977572216 0.00740141
-0.99985063099 0.0076112
-0.49992539027 0.00426767
0 0.0165631
0.49992553982 0.0414525
0.999851229193 0.0790926
1.49977706812 0.137839
1.9997030566 0.210177
2.49962919464 0.233967
2.99955548225 0.291224
3.49948191941 0.361085
3.99940850614 0.414035
4.49933524243 0.429885
4.99926212829 0.442433
5.49918916372 0.430896
5.99911634872 0.46957
6.49904368329 0.492443
6.99897116744 0.505147
7.49889880117 0.522916
7.99882658447 0.537903
8.49875451736 0.52895
8.99868259983 0.51107
9.49861083188 0.51198
9.99853921351 0.505793
10.4984677447 0.505843
10.9983964256 0.518375
11.498325256 0.519577
11.998254236 0.506002
12.4981833656 0.454415
12.9981126447 0.42454
13.4980420735 0.381517
13.9979716519 0.309162
14.4979013799 0.261958
14.9978312575 0.244666
15.4977612847 0.255931
15.9976914615 0.294883
16.4976217879 0.377636
16.997552264 0.450485
17.4974828896 0.522183
17.9974136649 0.619623
18.4973445897 0.793474
18.9972756642 0.891805
19.4972068883 0.918318
19.9971382621 0.887092
20.4970697854 0.842245
20.9970014584 0.804214
21.496933281 0.750349
21.9968652533 0.668777
22.4967973751 0.566072
22.9967296466 0.495117
23.4966620678 0.473604
23.9965946385 0.483637
24.4965273589 0.504711
24.996460229 0.523449
