-24.933544119 0.477457
-24.4348799911 0.467787
-23.936215588 0.461494
-23.4375509097 0.467081
-22.9388859562 0.477
-22.4402207274 0.501066
-21.9415552234 0.543555
-21.442889444 0.515531
-20.9442233892 0.488306
-20.445557059 0.477535
-19.9468904534 0.480773
-19.4482235724 0.50723
-18.9495564158 0.531279
-18.4508889837 0.525598
-17.9522212761 0.504765
-17.4535532928 0.490185
-16.954885034 0.476935
-16.4562164994 0.483005
-15.9575476892 0.494565
-15.4588786033 0.469339
-14.9602092416 0.440402
-14.4615396041 0.441751
-13.9628696908 0.458919
-13.4641995016 0.470702
-12.9655290365 0.452932
-12.4668582955 0.418105
-11.9681872786 0.404737
-11.4695159857 0.429746
-10.9708444167 0.449015
-10.4721725717 0.470059
-9.9735004506 0.461021
-9.47482805339 0.444475
-8.97615538002 0.383268
-8.47748243047 0.348902
-7.9788092047 0.29796
-7.48013570268 0.283163
-6.98146192437 0.290836
-6.48278786975 0.298814
-5.98411353878 0.271499
-5.48543893143 0.192018
-4.98676404766 0.127024
-4.48808888745 0.0939975
-3.98941345076 0.0743358
-3.49073773755 0.0610542
-2.9920617478 0.0853371
-2.49338548147 0.093347
-1.99470893853 0.0758288
-1.49603211894 0.0518819
-0.997355022681 0.0310893
-0.498677649711 0.0406399
0 0.0425983
0.498677926485 0.0144177
0.997356129778 0
1.49603460991 0.0164373
1.99471336691 0.0498388
2.49339240082 0.081068
2.99207171167 0.108744
3.49075129949 0.134398
3.98943116431 0.171795
4.48811130616 0.214586
4.98679172508 0.207443
5.48547242111 0.17742
5.98415339426 0.162501
6.48283464458 0.166521
6.9815161721 0.160372
7.48019797686 0.101662
7.97888005887 0.0810488
8.47756241818 0.143195
8.97624505482 0.238996
9.47492796882 0.346198
9.97361116021 0.434644
10.472294629 0.510247
10.9709783753 0.565729
11.4696623991 0.627508
11.9683467004 0.727456
12.4670312792 0.86415
12.9657161357 1.00727
13.4644012697 1.04789
13.9630866814 1.0647
14.4617723708 1.08774
14.960458338 1.02935
15.4591445828 0.957302
15.9578311055 0.897564
16.4565179059 0.860841
16.9552049843 0.763634
17.4538923405 0.642685
17.9525799746 0.566181
18.4512678866 0.540315
18.9499560767 0.549264
19.4486445447 0.56313
19.9473332908 0.568039
20.446022315 0.580366
20.9447116172 0.606976
21.4434011976 0.637843
21.9420910562 0.638443
22.440781193 0.614125
22.939471608 0.584874
23.4381623013 0.533673
23.9368532729 0.465243
24.4355445229 0.413536
24.9342360512 0.340813
