-24.950517226 0.644769
-24.451512843 0.657213
-23.9525082171 0.616782
-23.4535033482 0.575843
-22.9544982363 0.55315
-22.4554928814 0.541264
-21.9564872835 0.52756
-21.4574814425 0.490122
-20.9584753584 0.428987
-20.4594690313 0.421726
-19.9604624609 0.423429
-19.4614556475 0.414965
-18.9624485909 0.404337
-18.463441291 0.405882
-17.9644337479 0.427957
-17.4654259616 0.45786
-16.966417932 0.468641
-16.4674096591 0.482083
-15.9684011429 0.469919
-15.4693923833 0.457293
-14.9703833803 0.469713
-14.4713741339 0.509107
-13.9723646442 0.538845
-13.4733549109 0.502979
-12.9743449342 0.395248
-12.475334714 0.315936
-11.9763242502 0.275942
-11.477313543 0.253598
-10.9783025921 0.275048
-10.4792913976 0.3105
-9.98027995957 0.323011
-9.48126827785 0.328107
-8.98225635246 0.332812
-8.48324418338 0.356735
-7.98423177057 0.371457
-7.48521911402 0.375326
-6.98620621371 0.391965
-6.4871930696 0.43207
-5.98817968167 0.41891
-5.48916604991 0.39047
-4.99015217428 0.370515
-4.49113805475 0.375011
-3.99212369132 0.397745
-3.49310908394 0.411458
-2.99409423261 0.381801
-2.49507913728 0.31578
-1.99606379795 0.247162
-1.49704821458 0.174256
-0.998032387143 0.113872
-0.499016315625 0.0671977
0 0.031744
0.49901655976 0
0.998033363676 0.00711644
1.49705041178 0.0181431
1.99606770408 0.0150014
2.49508524062 0.0536785
2.99410302141 0.180515
3.49312104648 0.289617
3.99213931585 0.413753
4.49115782955 0.54606
4.99017658761 0.694924
5.48919559004 0.852883
5.98821483687 1.02819
6.48723432812 1.19528
6.98625406382 1.29102
7.485274044 1.33335
7.98429426868 1.33853
8.48331473787 1.33804
8.98233545162 1.32552
9.48135640993 1.29744
9.98037761284 1.28015
10.4793990604 1.28745
10.9784207525 1.31943
11.4774426894 1.32534
11.9764648709 1.25353
12.4754872971 1.16221
12.9745099681 1.10427
13.4735328839 1.10306
13.9725560444 1.1194
14.4715794497 1.10439
14.9706030999 1.0927
15.469626995 1.10828
15.9686511349 1.1353
16.4676755197 1.15173
16.9667001495 1.16337
17.4657250242 1.21876
17.9647501439 1.28255
18.4637755086 1.35627
18.9628011184 1.39577
19.4618269732 1.40802
19.960853073 1.45207
20.459879418 1.52067
20.9589060081 1.53162
21.4579328434 1.49374
21.9569599238 1.44708
22.4559872494 1.39061
22.9550148202 1.28261
23.4540426363 1.13026
23.9530706977 0.98436
24.4520990043 0.908212
24.9511275563 0.856495
