-24.9547126552 0.553009
-24.4556242471 0.567544
-23.9565356007 0.545717
-23.4574467161 0.547388
-22.9583575933 0.556772
-22.4592682322 0.570358
-21.9601786328 0.585393
-21.461088795 0.604466
-20.9619987189 0.638659
-20.4629084045 0.646746
-19.9638178516 0.644172
-19.4647270604 0.639666
-18.9656360307 0.614294
-18.4665447625 0.576616
-17.9674532559 0.57472
-17.4683615108 0.609334
-16.9692695271 0.642704
-16.4701773049 0.67116
-15.9710848441 0.688344
-15.4719921447 0.670983
-14.9728992067 0.643079
-14.4738060301 0.69578
-13.9747126148 0.733919
-13.4756189609 0.741173
-12.9765250682 0.747562
-12.4774309368 0.76755
-11.9783365667 0.771191
-11.4792419577 0.787078
-10.98014711 0.750658
-10.4810520235 0.681262
-9.98195669811 0.605652
-9.48286113388 0.508123
-8.98376533076 0.446655
-8.48466928874 0.465526
-7.98557300779 0.476816
-7.48647648788 0.453395
-6.98737972901 0.488204
-6.48828273113 0.464761
-5.98918549424 0.396587
-5.49008801831 0.294297
-4.99099030331 0.195213
-4.49189234923 0.179607
-3.99279415605 0.170964
-3.49369572373 0.130961
-2.99459705226 0.060889
-2.49549814162 0.0293589
-1.99639899178 0.024773
-1.49729960272 0.0265182
-0.998199974415 0.0404559
-0.499100106851 0.0663302
0 0.0652314
0.499100346158 0.0494073
0.998200931647 0.00735148
1.49730175649 0
1.99640282071 0.00889533
2.49550412432 0.0154335
2.99460566735 0.0139483
3.49370744983 0.00904184
3.99280947176 0.00722559
4.49191173319 0.00216196
4.99101423412 0.00686514
5.49011697458 0.00910844
5.9892199546 0.00227133
6.48832317419 0.000357392
6.98742663338 0.00183636
7.48653033219 0.00900106
7.98563427063 0.00743509
8.48473844875 0.0109044
8.98384286654 0.0156583
9.48294752405 0.0187406
9.98205242128 0.0193589
10.4811575583 0.0144845
10.980262935 0.0196546
11.4793685516 0.0356293
11.978474408 0.0552543
12.4775805042 0.074771
12.9766868403 0.0908632
13.4757934162 0.0935583
13.9749002321 0.0862547
14.4740072879 0.112984
14.9731145837 0.240147
15.4722221194 0.344124
15.9713298951 0.400428
16.4704379109 0.473052
16.9695461666 0.58303
17.4686546625 0.630339
17.9677633984 0.656143
18.4668723744 0.666407
18.9659815906 0.672057
19.4650910469 0.677935
19.9642007434 0.677985
20.46331068 0.672943
20.9624208569 0.699958
21.4615312741 0.713302
21.9606419315 0.710929
22.4597528291 0.667578
22.9588639671 0.584534
23.4579753454 0.511752
23.957086964 0.449159
24.4561988231 0.428096
24.9553109225 0.458679
