-24.9330367339 0.797221
-24.4343826907 0.776349
-23.935728375 0.741597
-23.4370737866 0.712655
-22.9384189256 0.704716
-22.4397637918 0.707572
-21.9411083854 0.69856
-21.4424527062 0.683759
-20.9437967541 0.667839
-20.4451405293 0.648001
-19.9464840316 0.606702
-19.447827261 0.576609
-18.9491702175 0.584389
-18.4505129011 0.56684
-17.9518553116 0.559271
-17.4531974491 0.573255
-16.9545393136 0.583495
-16.455880905 0.596519
-15.9572222232 0.626993
-15.4585632683 0.649228
-14.9599040402 0.659928
-14.4612445389 0.704827
-13.9625847643 0.710325
-13.4639247164 0.674625
-12.9652643952 0.658839
-12.4666038007 0.640208
-11.9679429328 0.625421
-11.4692817914 0.607887
-10.9706203766 0.597161
-10.4719586883 0.593
-9.9732967265 0.596714
-9.47463449113 0.601863
-8.97597198217 0.597754
-8.4773091996 0.591803
-7.97864614337 0.559604
-7.47998281345 0.490462
-6.98131920982 0.444986
-6.48265533243 0.420711
-5.98399118126 0.381717
-5.48532675627 0.336873
-4.98666205743 0.265313
-4.48799708471 0.260036
-3.98933183807 0.285671
-3.49066631748 0.343289
-2.99200052291 0.305602
-2.49333445432 0.191705
-1.99466811169 0.129779
-1.49600149497 0.134426
-0.997334604138 0.125949
-0.498667439159 0.113164
0 0.122683
0.498667713372 0.101528
0.997335700991 0.0686235
1.49600396289 0.0463311
1.9946724991 0.0369243
2.49334130965 0.0597358
2.99201039458 0.0825812
3.49067975392 0.0899041
3.98934938771 0.0651057
4.48801929597 0.0166793
4.98668947874 0.00220837
5.48535993605 0.017952
5.98403066794 0.0123608
6.48270167444 0
6.98137295557 0.0594109
7.48004451138 0.151995
7.97871634189 0.186429
8.47738844715 0.205602
8.97606082717 0.217326
9.474733482 0.179502
9.97340641167 0.11919
10.4720796162 0.0571679
10.9707530956 0.0196506
11.46942685 0.00731064
11.9681008794 0.00201104
12.4667751837 0.0286904
12.9654497631 0.0594749
13.4641246175 0.0858539
13.9627997471 0.0720573
14.4614751517 0.0699224
14.9601508316 0.0851293
15.4588267866 0.134335
15.9575030169 0.217945
16.4561795224 0.334272
16.9548563032 0.448698
17.4535333594 0.46513
17.9522106909 0.456661
18.4508882978 0.419413
18.9495661801 0.408381
19.4482443379 0.424044
19.9469227712 0.421712
20.44560148 0.404338
20.9442804644 0.360755
21.4429597244 0.318894
21.9416392599 0.292249
22.4403190712 0.320625
22.9389991581 0.393311
23.4376795207 0.521709
23.9363601591 0.638472
24.4350410733 0.765552
24.9337222633 0.933339
