-24.9504314381 1.46703
-24.4514287586 1.46081
-23.9524258368 1.45339
-23.4534226724 1.47167
-22.9544192656 1.46452
-22.4554156163 1.44322
-21.9564117244 1.48182
-21.45740759 1.54822
-20.9584032129 1.55248
-20.4593985933 1.49798
-19.9603937311 1.39172
-19.4613886261 1.23389
-18.9623832786 1.09109
-18.4633776882 1.01696
-17.9643718552 1.00032
-17.4653657794 1.07298
-16.9663594609 1.16747
-16.4673528995 1.25562
-15.9683460953 1.31613
-15.4693390482 1.26255
-14.9703317583 1.20692
-14.4713242254 1.13026
-13.9723164497 1.05354
-13.4733084309 0.999219
-12.9743001693 0.940462
-12.4752916646 0.87317
-11.9762829168 0.804571
-11.477273926 0.772003
-10.9782646922 0.785707
-10.4792552152 0.802187
-9.98024549517 0.827081
-9.48123553195 0.820433
-8.98222532556 0.769501
-8.48321487596 0.777184
-7.98420418315 0.798039
-7.48519324709 0.78326
-6.98618206776 0.713001
-6.48717064513 0.625287
-5.98815897918 0.545842
-5.48914706989 0.52579
-4.99013491723 0.507237
-4.49112252118 0.4644
-3.99210988171 0.431754
-3.4930969988 0.405167
-2.99408387242 0.40183
-2.49507050255 0.417044
-1.99605688917 0.43362
-1.49704303225 0.328548
-0.998028931762 0.229579
-0.499014587688 0.137986
0 0.0781455
0.499014831324 0.0570534
0.998029906309 0.0304908
1.49704522498 0.00899686
1.99606078736 0
2.49507659348 0.00746373
2.99409264335 0.0411745
3.49310893701 0.0771844
3.99212547447 0.104697
4.49114225577 0.114769
4.99015928092 0.206741
5.48917654995 0.317574
5.98819406289 0.490135
6.48721181975 0.580512
6.98622982057 0.548492
7.48524806537 0.504217
7.98426655416 0.566293
8.48328528699 0.660775
8.98230426386 0.791449
9.48132348481 0.889831
9.98034294986 0.942131
10.479362659 0.994027
10.9783826123 1.05342
11.4774028098 1.14355
11.9764232515 1.21528
12.4754439374 1.22541
12.9744648676 1.11862
13.473486042 0.93145
13.9725074607 0.796032
14.4715291237 0.666757
14.9705510311 0.54929
15.4695731828 0.489048
15.9685955789 0.474173
16.4676182195 0.449915
16.9666411045 0.417924
17.4656642339 0.429362
17.9646876078 0.536287
18.4637112262 0.647365
18.9627350892 0.72859
19.4617591967 0.735276
19.9607835488 0.617285
20.4598081456 0.500163
20.9588329869 0.411884
21.4578580729 0.34029
21.9568834036 0.278971
22.455908979 0.249478
22.9549347991 0.245285
23.4539608639 0.248002
23.9529871736 0.256618
24.452013728 0.270392
24.9510405273 0.30145
