-24.9335406393 0.438266
-24.4348765805 0.439505
-23.9362122465 0.436171
-23.4375476373 0.42307
-22.9388827529 0.414093
-22.4402175932 0.407786
-21.9415521583 0.41379
-21.4428864481 0.419097
-20.9442204625 0.413279
-20.4455542016 0.416366
-19.9468876652 0.426974
-19.4482208534 0.428925
-18.9495537662 0.425221
-18.4508864034 0.424872
-17.9522187651 0.440371
-17.4535508512 0.451694
-16.9548826617 0.454987
-16.4562141966 0.436477
-15.9575454558 0.440303
-15.4588764393 0.437963
-14.9602071471 0.440893
-14.4615375791 0.455941
-13.9628677353 0.46105
-13.4641976157 0.436688
-12.9655272202 0.408092
-12.4668565487 0.399671
-11.9681856014 0.407119
-11.4695143781 0.366639
-10.9708428788 0.328646
-10.4721711035 0.304063
-9.97349905206 0.28093
-9.47482672456 0.273712
-8.97615412094 0.257985
-8.47748124114 0.241601
-7.97880808516 0.238265
-7.48013465294 0.277868
-6.98146094446 0.327473
-6.48278695969 0.306022
-5.98411269859 0.235888
-5.48543816113 0.190222
-4.98676334728 0.152397
-4.48808825701 0.131524
-3.98941289027 0.116796
-3.49073724705 0.104061
-2.9920613273 0.114707
-2.493385131 0.147834
-1.99470865811 0.162836
-1.49603190859 0.131071
-0.997354882428 0.118987
-0.498677579574 0.142726
0 0.198077
0.498677856326 0.173875
0.997355989436 0.123432
1.49603439936 0.0927388
1.99471308614 0.0738151
2.4933920498 0.074051
2.99207129038 0.0832922
3.4907508079 0.0869926
3.9894306024 0.0952179
4.48811067392 0.12473
4.98679102248 0.121606
5.48547164813 0.0797345
5.98415255088 0.0346812
6.48283373077 0.00628636
6.98151518785 0
7.48019692213 0.00487192
7.97887893365 0.00737475
8.47756122244 0.00464186
8.97624378855 0.000973879
9.47492663199 0.00896203
9.9736097528 0.0356561
10.472293151 0.100669
10.9709768267 0.157071
11.4696607798 0.242269
11.9683450104 0.353153
12.4670295186 0.45938
12.9657143043 0.529903
13.4643993676 0.600723
13.9630847086 0.596459
14.4617703272 0.61918
14.9604562235 0.645896
15.4591423976 0.714042
15.9578288494 0.772602
16.456515579 0.788569
16.9552025864 0.774562
17.4538898717 0.708593
17.9525774348 0.653314
18.4512652759 0.606903
18.949953395 0.57685
19.448641792 0.557789
19.9473304671 0.560699
20.4460194202 0.593453
20.9447086514 0.645183
21.4433981607 0.693258
21.9420879482 0.723342
22.4407780139 0.729287
22.9394683577 0.71982
23.4381589799 0.676875
23.9368498802 0.6449
24.435541059 0.574553
24.934232516 0.494191
