-24.9335545346 0.779014
-24.4348902 0.790106
-23.9362255902 0.795986
-23.4375607051 0.788273
-22.9388955447 0.788462
-22.4402301089 0.801013
-21.9415643979 0.798186
-21.4428984114 0.797519
-20.9442321494 0.804291
-20.4455656121 0.816023
-19.9468987992 0.825834
-19.4482317108 0.815221
-18.9495643468 0.835069
-18.4508967072 0.84086
-17.9522287921 0.839286
-17.4535606012 0.819941
-16.9548921347 0.824693
-16.4562233924 0.82387
-15.9575543744 0.80482
-15.4588850805 0.810938
-14.9602155109 0.837165
-14.4615456654 0.834771
-13.962875544 0.82388
-13.4642051467 0.835816
-12.9655344734 0.855441
-12.4668635241 0.8433
-11.9681922988 0.824148
-11.4695207975 0.799749
-10.97084902 0.775726
-10.4721769665 0.751968
-9.97350463679 0.716892
-9.47483203089 0.669727
-8.97615914878 0.595975
-8.47748599042 0.536238
-7.97881255577 0.493468
-7.48013884481 0.451478
-6.98146485749 0.40496
-6.4827905938 0.35059
-5.98411605368 0.300269
-5.48544123712 0.233405
-4.98676614408 0.216972
-4.48809077452 0.218294
-3.98941512842 0.231508
-3.49073920574 0.231817
-2.99206300644 0.239219
-2.49338653051 0.247519
-1.99470977789 0.252627
-1.49603274856 0.245848
-0.997355442496 0.233031
-0.498677859652 0.224678
0 0.221491
0.498678136493 0.22928
0.997356549858 0.247335
1.49603524013 0.266589
1.99471420734 0.288679
2.49339345152 0.332449
2.99207297271 0.375511
3.49075277093 0.424695
3.98943284622 0.457909
4.48811319861 0.472898
4.98679382814 0.513179
5.48547473483 0.537109
5.98415591873 0.508945
6.48283737985 0.51695
6.98151911824 0.545527
7.48020113393 0.585023
7.97888342695 0.625314
8.47756599733 0.643932
8.9762488451 0.687693
9.4749319703 0.761401
9.97361537296 0.821628
10.4722990531 0.848779
10.9709830108 0.852732
11.469667246 0.850952
11.9683517589 0.850682
12.4670365493 0.850123
12.9657216174 0.850982
13.4644069632 0.861188
13.9630925867 0.872669
14.461778488 0.871168
14.960464667 0.837569
15.4591511239 0.779156
15.9578378586 0.690816
16.4565248712 0.546083
16.9552121617 0.403101
17.4538997302 0.266944
17.9525875766 0.206341
18.4512757011 0.138645
18.9499641036 0.0830209
19.4486527841 0.0479259
19.9473417428 0.0196977
20.4460309796 0
20.9447204946 0.0103698
21.4434102878 0.0129355
21.9421003593 0.0136609
22.440790709 0.0264326
22.939481337 0.0293887
23.4381722434 0.0409703
23.9368634281 0.0643509
24.4355548912 0.09505
24.9342466327 0.132043
