-24.9317838698 0.661017
-24.4331549464 0.637947
-23.9345257479 0.602736
-23.4358962742 0.551218
-22.9372665253 0.506402
-22.4386365012 0.492099
-21.9400062018 0.476853
-21.4413756271 0.453417
-20.9427447771 0.442243
-20.4441136517 0.447131
-19.9454822509 0.435593
-19.4468505746 0.421643
-18.9482186229 0.409683
-18.4495863957 0.380074
-17.9509538929 0.352651
-17.4523211146 0.357023
-16.9536880606 0.359772
-16.4550547311 0.349923
-15.9564211258 0.345389
-15.4577872448 0.364886
-14.9591530881 0.396496
-14.4605186557 0.423353
-13.9618839474 0.454926
-13.4632489632 0.481808
-12.9646137032 0.508199
-12.4659781673 0.536103
-11.9673423554 0.522907
-11.4687062676 0.501398
-10.9700699037 0.482769
-10.4714332638 0.476515
-9.97279634787 0.483355
-9.47415915578 0.501843
-8.97552168754 0.51918
-8.47688394313 0.509601
-7.9782459225 0.463778
-7.47960762562 0.42174
-6.98096905247 0.404084
-6.48233020299 0.371785
-5.98369107718 0.331563
-5.48505167498 0.352862
-4.98641199636 0.356899
-4.4877720413 0.253947
-3.98913180975 0.168271
-3.49049130169 0.163015
-2.99185051708 0.159003
-2.49320945589 0.136303
-1.99456811808 0.105745
-1.49592650362 0.0751072
-0.997284612473 0.0424966
-0.498642444612 0.0140223
0 0.00268579
0.498642721396 0.00226339
0.997285719609 0.00124901
1.49592899467 0
1.99457254662 0.00122751
2.49321637549 0.00342412
2.99186048131 0.00508137
3.49050486412 0.00530663
3.98914952394 0.00726954
4.48779446082 0.0108994
4.98643967478 0.0125912
5.48508516586 0.0125584
5.98373093409 0.0197669
6.48237697951 0.0237414
6.98102330215 0.0243375
7.47966990204 0.0261066
7.97831677922 0.0274227
8.47696393371 0.0274845
8.97561136556 0.0261794
9.4742590748 0.025842
9.97290706146 0.0223625
10.4715553256 0.018236
10.9702038672 0.0152558
11.4688526863 0.0136651
11.967501783 0.0127843
12.4661511572 0.0123966
12.9648008091 0.00935473
13.4634507386 0.00767057
13.9621009458 0.00294615
14.4607514308 0.00861119
14.9594021935 0.0338792
15.4580532339 0.0879596
15.9567045522 0.225002
16.4553561484 0.360355
16.9540080224 0.47957
17.4526601744 0.589507
17.9513126043 0.691918
18.4499653122 0.770995
18.9486182981 0.82472
19.4472715621 0.856219
19.9459251042 0.878299
20.4445789243 0.898084
20.9432330227 0.922478
21.4418873992 0.939437
21.9405420539 0.933322
22.4391969869 0.915119
22.9378521982 0.898951
23.4365076878 0.886267
23.9351634557 0.866453
24.4338195021 0.833085
24.9324758268 0.792221
