-24.9327350562 1.39765
-24.4340869937 1.38059
-23.9354386609 1.39922
-23.4367900576 1.41489
-22.9381411838 1.4434
-22.4394920394 1.42518
-21.9408426245 1.39144
-21.442192939 1.34557
-20.9435429828 1.30653
-20.444892756 1.27741
-19.9462422585 1.26154
-19.4475914902 1.24573
-18.9489404512 1.24633
-18.4502891413 1.24279
-17.9516375607 1.20262
-17.4529857091 1.18072
-16.9543335867 1.16807
-16.4556811933 1.13608
-15.957028529 1.11263
-15.4583755936 1.05873
-14.9597223872 1.02957
-14.4610689098 0.983623
-13.9624151613 0.953433
-13.4637611416 0.897396
-12.9651068507 0.845958
-12.4664522887 0.795312
-11.9677974554 0.753715
-11.4691423508 0.741721
-10.970486975 0.74356
-10.4718313278 0.747362
-9.97317540924 0.672946
-9.47451921928 0.581628
-8.97586275789 0.56532
-8.47720602504 0.520128
-7.97854902068 0.471042
-7.4798917448 0.433831
-6.98123419734 0.413942
-6.48257637829 0.386472
-5.9839182876 0.344236
-5.48525992525 0.279452
-4.9866012912 0.214596
-4.48794238542 0.169247
-3.98928320788 0.11414
-3.49062375853 0.0519583
-2.99196403736 0.0274602
-2.49330404432 0.0295719
-1.99464377938 0.0326827
-1.49598324251 0.02513
-0.997322433684 0
-0.498661352857 0.0150307
0 0.0425099
0.498661624919 0.115529
0.997323521934 0.17299
1.49598569108 0.160929
1.99464813238 0.16899
2.49331084588 0.180192
2.99197383161 0.21751
3.4906370896 0.279607
3.98930061988 0.367616
4.48796442249 0.482284
4.98662849746 0.479206
5.48529284482 0.605399
5.98395746461 0.761427
6.48262235686 0.799047
6.9812875216 0.791183
7.47995295886 0.764567
7.97861866868 0.724666
8.47728465109 0.688753
8.97595090613 0.636294
9.47461743382 0.52924
9.9732842342 0.39465
10.4719513073 0.294083
10.9706186532 0.242135
11.4692862718 0.201341
11.9679541633 0.180827
12.4666223276 0.166777
12.9652907648 0.170948
13.4639594749 0.239466
13.962628458 0.301503
14.4612977141 0.298832
14.9599672432 0.271209
15.4586370453 0.242931
15.9573071205 0.232334
16.4559774689 0.262599
16.9546480904 0.318685
17.453318985 0.36482
17.9519901529 0.398091
18.450661594 0.402097
18.9493333085 0.353125
19.4480052962 0.291147
19.9466775573 0.249268
20.4453500917 0.235442
20.9440228996 0.232386
21.4426959809 0.234173
21.9413693357 0.243351
22.440042964 0.254239
22.9387168658 0.26117
23.4373910413 0.285834
23.9360654903 0.308025
24.434740213 0.315146
24.9334152093 0.316608
