-24.9335371558 0.51968
-24.434873166 0.519038
-23.9362089012 0.511063
-23.4375443611 0.509892
-22.9388795459 0.510081
-22.4402144555 0.495315
-21.9415490898 0.47948
-21.4428834489 0.475312
-20.9442175326 0.475734
-20.4455513409 0.479625
-19.9468848739 0.487366
-19.4482181315 0.493249
-18.9495511136 0.494399
-18.4508838202 0.487946
-17.9522162513 0.477982
-17.4535484069 0.476249
-16.9548802868 0.477921
-16.4562118912 0.479842
-15.9575432199 0.48026
-15.458874273 0.478387
-14.9602050503 0.473293
-14.4615355518 0.466859
-13.9628657776 0.461996
-13.4641957276 0.458392
-12.9655254017 0.456735
-12.4668548 0.460105
-11.9681839223 0.460436
-11.4695127687 0.446778
-10.9708413392 0.408703
-10.4721696336 0.381975
-9.97349765195 0.358447
-9.47482539425 0.331733
-8.97615286044 0.294336
-8.47748005048 0.256902
-7.97880696436 0.222853
-7.48013360202 0.225923
-6.98145996345 0.184461
-6.48278604861 0.1323
-5.98411185746 0.0952127
-5.48543738997 0.067237
-4.98676264612 0.0667287
-4.48808762586 0.0745502
-3.98941232916 0.0801063
-3.490736756 0.073817
-2.99206090634 0.0701589
-2.49338478014 0.0612729
-1.99470837738 0.0582119
-1.49603169801 0.0760152
-0.997354742017 0.0830879
-0.498677509357 0.0866895
0 0.100129
0.498677786087 0.110927
0.997355848936 0.108143
1.49603418858 0.103547
1.99471280505 0.0890498
2.49339169838 0.0826562
2.99207086861 0.0851218
3.49075031576 0.0927688
3.98943003987 0.0998653
4.48811004097 0.0902256
4.9867903191 0.0678095
5.48547087428 0.101856
5.98415170655 0.144287
6.48283281594 0.160667
6.98151420248 0.155445
7.48019586621 0.134693
7.97887780716 0.122593
8.47756002536 0.108159
8.97624252085 0.0867397
9.47492529365 0.0534477
9.9736083438 0.0162732
10.4722916713 0.00395262
10.9709752763 0.00453897
11.4696591587 0.003783
11.9683433186 0.0128519
12.4670277559 0.0186086
12.9657124709 0.0104242
13.4643974634 0
13.9630827335 0.0216228
14.4617682813 0.0452508
14.9604541067 0.0835149
15.4591402098 0.112597
15.9578265907 0.150683
16.4565132494 0.182727
16.9552001858 0.259294
17.4538874001 0.307498
17.9525748923 0.315667
18.4512626623 0.31828
18.9499507103 0.296211
19.4486390363 0.304987
19.9473276402 0.33848
20.4460165222 0.413379
20.9447056823 0.472262
21.4433951204 0.521008
21.9420848367 0.566366
22.4407748312 0.58728
22.9394651038 0.60181
23.4381556546 0.613197
23.9368464838 0.599876
24.4355375912 0.505309
24.9342289769 0.441249
