-24.9317997976 1.11074
-24.4331705582 1.08946
-23.9345410436 1.10044
-23.4359112536 1.14347
-22.9372811884 1.13766
-22.4386508479 1.11116
-21.9400202319 1.10728
-21.4413893406 1.0818
-20.9427581738 1.02737
-20.4441267316 0.99585
-19.9454950138 0.96282
-19.4468630205 0.912483
-18.9482307516 0.869067
-18.4495982071 0.846622
-17.950965387 0.8233
-17.4523322912 0.801319
-16.9536989197 0.758085
-16.4550652724 0.712979
-15.9564313494 0.696782
-15.4577971505 0.687192
-14.9591626758 0.658454
-14.4605279253 0.618972
-13.9618928988 0.585179
-13.4632575963 0.55044
-12.9646220179 0.539519
-12.4659861635 0.503795
-11.967350033 0.453386
-11.4687136265 0.4145
-10.9700769438 0.376788
-10.471439985 0.334134
-9.97280275 0.286049
-9.47416523878 0.220776
-8.97552745132 0.141639
-8.47688938757 0.105476
-7.97825104751 0.0744206
-7.47961243109 0.0576539
-6.9809735383 0.0466086
-6.48233436908 0.0361346
-5.98369492341 0.0319345
-5.48505520126 0.0335501
-4.98641520259 0.0342105
-4.48777492737 0.0324225
-3.98913437556 0.021236
-3.49049354714 0.00171739
-2.99185244206 0
-2.49321106029 0.00684249
-1.99456940181 0.0163965
-1.49592746657 0.0286022
-0.997285254544 0.035393
-0.498642765699 0.0373786
0 0.0325599
0.498643042586 0.0317252
0.997286362093 0.0459067
1.49592995856 0.0487121
1.994573832 0.0586357
2.49321798248 0.0835164
2.99186241 0.093466
3.49050711462 0.0951293
3.98915209635 0.0989859
4.48779735524 0.0985817
4.98644289132 0.0761848
5.48508870463 0.0736619
5.98373479518 0.0728906
6.48238116303 0.0744646
6.9810278082 0.0862084
7.47967473073 0.109994
7.97832193064 0.142127
8.47696940798 0.174464
8.97561716277 0.17972
9.47426519505 0.168169
9.97291350486 0.168995
10.4715620922 0.19292
10.9702109572 0.211852
11.4688600998 0.224773
11.96750952 0.185741
12.4661592179 0.145984
12.9648091935 0.122265
13.463459447 0.0978365
13.9621099781 0.0649995
14.4607607872 0.0718693
14.959411874 0.146156
15.4580632388 0.25861
15.9567148815 0.377254
16.4553668021 0.474995
16.9540190007 0.550371
17.4526714774 0.604651
17.9513242321 0.619135
18.4499772649 0.601719
18.9486305758 0.535928
19.4472841649 0.472356
19.9459380322 0.409742
20.4445921777 0.364163
20.9432466014 0.344953
21.4419013034 0.341292
21.9405562838 0.359793
22.4392115425 0.402926
22.9378670796 0.48653
23.4365228951 0.560201
23.9351789891 0.556901
24.4338353616 0.543963
24.9324920126 0.484567
