-24.9327773036 1.62514
-24.4341284029 1.59944
-23.9354792316 1.57672
-23.4368297895 1.54434
-22.9381800767 1.53248
-22.439530093 1.55004
-21.9408798385 1.64829
-21.4422293131 1.6176
-20.9435785168 1.57761
-20.4449274496 1.55651
-19.9462761113 1.51625
-19.4476245021 1.47671
-18.9489726218 1.4399
-18.4503204705 1.394
-17.951668048 1.35613
-17.4530153544 1.33287
-16.9543623896 1.32642
-16.4557091536 1.34323
-15.9570556464 1.30932
-15.4584018679 1.25597
-14.9597478181 1.22199
-14.4610934969 1.19131
-13.9624389044 1.15648
-13.4637840404 1.12127
-12.9651289051 1.09798
-12.4664734982 1.08303
-11.9678178198 1.06277
-11.4691618699 1.01527
-10.9705056484 0.944973
-10.4718491553 0.899731
-9.97319239057 0.909844
-9.47453535416 0.903271
-8.97587804603 0.839273
-8.47722046617 0.76455
-7.97856261453 0.721303
-7.47990449108 0.664054
-6.9812460958 0.60693
-6.48258742864 0.57706
-5.98392848957 0.575354
-5.48526927856 0.537254
-4.98660979559 0.491835
-4.4879500406 0.492126
-3.98929001358 0.470198
-3.49062971448 0.411455
-2.99196914328 0.354032
-2.49330829994 0.294069
-1.99464718442 0.242849
-1.49598579671 0.207708
-0.997324136754 0.179387
-0.498662204529 0.140425
0 0.1197
0.498662476865 0.0925918
0.9973252261 0.0495956
1.49598824774 0.0130632
1.99465154181 0.0247419
2.49331510835 0.0140821
2.9919789474 0.00544336
3.49064305898 0.00911575
3.98930744312 0.0115072
4.48797209987 0.00781798
4.98663702925 0.025426
5.4853022313 0.0217708
5.98396770605 0
6.48263345353 0.0140967
6.98129947377 0.00974547
7.47996576682 0.105911
7.97863233269 0.243581
8.47729917143 0.323004
8.97596628307 0.37007
9.47463366764 0.342831
9.97330132517 0.328414
10.4719692557 0.362325
10.9706374593 0.405051
11.4693059359 0.491697
11.9679746856 0.573198
12.4666437084 0.637895
12.9653130044 0.674642
13.4639825736 0.689793
13.962652416 0.696713
14.4613225317 0.736306
14.9599929207 0.703046
15.458663583 0.6687
15.9573345186 0.582521
16.4560057277 0.528511
16.9546772101 0.469871
17.4533489661 0.378194
17.9520209955 0.308028
18.4506932984 0.383576
18.9493658749 0.429617
19.448038725 0.399751
19.9467118487 0.370695
20.445385246 0.35217
20.9440589171 0.340941
21.4427328618 0.349322
21.9414070803 0.399235
22.4400815726 0.510136
22.9387563387 0.637645
23.4374313786 0.726662
23.9361066925 0.787463
24.4347822802 0.800157
24.9334581419 0.813627
