-24.9959957046 0.407762
-24.4960794452 0.395737
-23.9961630367 0.38094
-23.4962464791 0.367474
-22.9963297723 0.374244
-22.4964129164 0.37038
-21.9964959114 0.408096
-21.4965787571 0.451706
-20.9966614538 0.491395
-20.4967440012 0.524578
-19.9968263996 0.559249
-19.4969086487 0.618338
-18.9969907487 0.728385
-18.4970726996 0.767167
-17.9971545012 0.769213
-17.4972361537 0.779977
-16.9973176571 0.797396
-16.4973990112 0.797899
-15.9974802162 0.864717
-15.497561272 0.815273
-14.9976421787 0.790634
-14.4977229361 0.788262
-13.9978035444 0.784617
-13.4978840035 0.820703
-12.9979643134 0.863062
-12.4980444741 0.838179
-11.9981244856 0.762554
-11.4982043479 0.694153
-10.9982840611 0.64522
-10.498363625 0.587437
-9.99844303977 0.543789
-9.49852230532 0.466245
-8.99860142166 0.381484
-8.4986803888 0.295107
-7.99875920673 0.145967
-7.49883787545 0.0784224
-6.99891639497 0.000813079
-6.49899476527 0
-5.99907298636 0.020368
-5.49915105823 0.0468055
-4.99922898088 0.072555
-4.49930675432 0.12865
-3.99938437853 0.203074
-3.49946185352 0.265322
-2.99953917928 0.323222
-2.49961635582 0.393263
-1.99969338312 0.461709
-1.49977026119 0.507965
-0.999846990031 0.514302
-0.499923569634 0.464818
0 0.402885
0.499923718874 0.400306
0.99984758699 0.465363
1.49977160435 0.546367
1.99969577095 0.605929
2.4996200868 0.622169
2.9995445519 0.617289
3.49946916626 0.612659
3.99939392986 0.595834
4.49931884272 0.632722
4.99924390484 0.691734
5.49916911621 0.717939
5.99909447685 0.773656
6.49901998675 0.82619
6.99894564591 0.895694
7.49887145434 1.01335
7.99879741204 0.996158
8.498723519 1.00469
8.99864977524 0.983127
9.49857618076 0.958643
9.99850273555 0.95568
10.4984294396 0.973789
10.998356293 0.925847
11.4982832956 0.907453
11.9982104475 0.917637
12.4981377487 0.905535
12.9980651992 0.909963
13.4979927989 0.938704
13.997920548 0.979054
14.4978484464 1.02568
14.997776494 1.0363
15.497704691 1.03394
15.9976330372 1.00561
16.4975615327 0.910593
16.9974901776 0.834525
17.4974189717 0.791614
17.9973479152 0.763122
18.4972770079 0.759254
18.99720625 0.780438
19.4971356414 0.798464
19.9970651821 0.806271
20.4969948721 0.767602
20.9969247114 0.663811
21.4968547 0.566814
21.996784838 0.507725
22.4967151253 0.475782
22.9966455619 0.466506
23.4965761478 0.466548
23.9965068831 0.466021
24.4964377676 0.445741
24.9963688015 0.422424
