-24.9371294036 0.806189
-24.4383933556 0.827365
-23.9396570411 0.834693
-23.4409204601 0.80015
-22.9421836126 0.782731
-22.4434464986 0.77639
-21.944709118 0.769476
-21.4459714709 0.757043
-20.9472335571 0.753813
-20.4484953766 0.734103
-19.9497569294 0.675287
-19.4510182156 0.630169
-18.9522792349 0.59783
-18.4535399875 0.556255
-17.9548004733 0.49413
-17.4560606922 0.471357
-16.9573206443 0.474114
-16.4585803294 0.485284
-15.9598397476 0.481542
-15.4610988988 0.455278
-14.9623577831 0.46791
-14.4636164003 0.46778
-13.9648747504 0.463998
-13.4661328334 0.459126
-12.9673906493 0.444727
-12.4686481981 0.418409
-11.9699054796 0.396588
-11.471162494 0.35392
-10.9724192411 0.307313
-10.4736757209 0.259255
-9.9749319334 0.221467
-9.47618787855 0.1924
-8.97744355633 0.17753
-8.47869896671 0.145854
-7.97995410965 0.0998395
-7.48120898512 0.0717609
-6.98246359309 0.0614968
-6.48371793353 0.0574377
-5.98497200642 0.056844
-5.48622581171 0.0682813
-4.98747934937 0.0629262
-4.48873261939 0.051281
-3.98998562172 0.0503454
-3.49123835633 0.0545495
-2.9924908232 0.0642575
-2.49374302229 0.0587163
-1.99499495357 0.0524121
-1.49624661702 0.0442086
-0.997498012589 0.0136738
-0.498749140261 0.00945882
0 0.000251042
0.498749408223 0
0.99749908444 0.00535029
1.49624902868 0.0190405
1.99499924098 0.0255607
2.49374972136 0.0235824
2.99250046986 0.0224582
3.49125148651 0.0271717
3.99000277134 0.0296055
4.48875432438 0.0281097
4.98750614566 0.02519
5.48625823521 0.0234757
5.98501059306 0.0284358
6.48376321925 0.0479039
6.9825161138 0.0775278
7.48126927674 0.107831
7.98002270811 0.122583
8.47877640794 0.210996
8.97753037625 0.30394
9.47628461308 0.343718
9.97503911847 0.354893
10.4737938924 0.36462
10.972548935 0.369394
11.4713042462 0.395817
11.9700598261 0.460983
12.4688156747 0.495817
12.967571792 0.513006
13.4663281781 0.527288
13.965084833 0.540504
14.4638417567 0.580032
14.9625989492 0.678242
15.4613564107 0.74074
15.960114141 0.76305
16.4588721403 0.792413
16.9576304086 0.822015
17.4563889459 0.849285
17.9551477523 0.873753
18.4539068277 0.909062
18.9526661722 0.941541
19.4514257859 0.962134
19.9501856687 0.990533
20.4489458207 1.01277
20.9477062419 1.03126
21.4464669324 1.04892
21.9452278922 1.06968
22.4439891212 1.08772
22.9427506197 1.10772
23.4415123875 1.11948
23.9402744247 1.1172
24.4390367313 1.11582
24.9377993075 1.09282
