-24.9645988556 1.16827
-24.4653122205 1.17857
-23.9660253675 1.18338
-23.4667382968 1.20087
-22.9674510083 1.20528
-22.468163502 1.19455
-21.9688757778 1.17429
-21.4695878359 1.15727
-20.970299676 1.1522
-20.4710112983 1.14501
-19.9717227027 1.11023
-19.4724338891 1.05848
-18.9731448576 1.01643
-18.4738556082 1.05027
-17.9745661408 1.01161
-17.4752764554 0.977924
-16.9759865521 0.928731
-16.4766964307 0.87591
-15.9774060912 0.813395
-15.4781155337 0.733723
-14.9788247582 0.662206
-14.4795337645 0.525728
-13.9802425527 0.43567
-13.4809511228 0.407085
-12.9816594748 0.396811
-12.4823676086 0.357953
-11.9830755242 0.304187
-11.4837832216 0.242434
-10.9844907009 0.196329
-10.4851979618 0.171181
-9.98590500456 0.15943
-9.48661182903 0.177538
-8.98731843521 0.222994
-8.48802482309 0.199849
-7.98873099265 0.171622
-7.48943694387 0.162797
-6.99014267674 0.161966
-6.49084819124 0.143095
-5.99155348735 0.136194
-5.49225856506 0.140986
-4.99296342434 0.0756681
-4.49366806518 0.0359105
-3.99437248756 0.0181255
-3.49507669146 0.00810081
-2.99578067687 0
-2.49648444377 0.0342091
-1.99718799214 0.0694993
-1.49789132197 0.0938763
-0.998594433234 0.114457
-0.499297325916 0.143505
0 0.155163
0.499297544532 0.178223
0.998595307695 0.198496
1.49789328951 0.1966
1.99719148999 0.228374
2.49648990916 0.239666
2.99578854703 0.257808
3.49508740362 0.235951
3.99438647894 0.190099
4.49368577302 0.151734
4.99298528588 0.142265
5.49228501752 0.164376
5.99158496796 0.191539
6.49088513724 0.199423
6.99018552535 0.20125
7.48948613232 0.226539
7.98878695817 0.297437
8.48808800291 0.333511
8.98738926656 0.359548
9.48669074914 0.377235
9.98599245066 0.412224
10.4852943711 0.507615
10.9845965106 0.582064
11.4838988691 0.629099
11.9832014466 0.659947
12.4825042431 0.689384
12.9818072586 0.703066
13.4811104932 0.704428
13.9804139469 0.700591
14.4797176198 0.702061
14.9790215117 0.701001
15.4783256227 0.725646
15.9776299529 0.749377
16.4769345023 0.824901
16.9762392709 0.857905
17.4755442587 0.830619
17.9748494657 0.883685
18.4741548919 0.980221
18.9734605374 1.09059
19.4727664021 1.12792
19.9720724862 1.13907
20.4713787895 1.13384
20.9706853122 1.11774
21.4699920543 1.10562
21.9692990156 1.10012
22.4686061964 1.14084
22.9679135965 1.2083
23.4672212161 1.29478
23.9665290551 1.39542
24.4658371135 1.44072
24.9651453914 1.45508
