-24.932743536 1.57028
-24.4340953054 1.56036
-23.9354468042 1.55503
-23.4367980325 1.5605
-22.9381489903 1.55629
-22.4394996775 1.54278
-21.9408500941 1.52625
-21.44220024 1.48503
-20.9435501152 1.43337
-20.4448997196 1.40966
-19.9462490534 1.37848
-19.4475981163 1.34097
-18.9489469084 1.29619
-18.4502954297 1.217
-17.9516436801 1.12899
-17.4529916595 1.06126
-16.954339368 1.09335
-16.4556868055 1.0944
-15.957033972 1.01898
-15.4583808674 0.957565
-14.9597274917 0.918768
-14.4610738449 0.876618
-13.962419927 0.8388
-13.4637657378 0.831106
-12.9651112775 0.829575
-12.4664565458 0.784286
-11.9678015429 0.730845
-11.4691462687 0.685105
-10.9704907231 0.642135
-10.4718349061 0.619239
-9.97317881772 0.606228
-9.47452245786 0.615392
-8.97586582652 0.619884
-8.47720892365 0.60836
-7.97855174923 0.537189
-7.47989430322 0.471205
-6.98123658559 0.419954
-6.48257859631 0.356774
-5.98392033534 0.325105
-5.48526180264 0.335152
-4.9866029982 0.328266
-4.48794392197 0.325338
-3.98928457391 0.349985
-3.49062495401 0.346829
-2.99196506221 0.333613
-2.4933048985 0.288881
-1.99464446284 0.198426
-1.49598375519 0.121217
-0.997322775523 0.0593006
-0.498661523804 0.0169031
0 0
0.498661795922 0.00975841
0.997323863994 0.0382127
1.49598620425 0.0485297
1.99464881672 0.0426282
2.49331170145 0.0264763
2.99197485845 0.0235633
3.49063828777 0.151245
3.98930198944 0.326759
4.48796596349 0.471562
4.98663020996 0.560379
5.48529472888 0.621933
5.98395952027 0.639423
6.48262458418 0.644205
6.98128992064 0.608954
7.47995552967 0.601043
7.97862141132 0.640147
8.47728756561 0.666656
8.97595399259 0.673731
9.47462069227 0.684982
9.9732876647 0.675825
10.4719549099 0.678432
10.9706224279 0.662803
11.4692902188 0.682632
11.9679582825 0.744651
12.4666266192 0.81493
12.9652952287 0.814209
13.4639641113 0.822857
13.9626332669 0.867295
14.4613026955 0.891276
14.9599723972 0.875579
15.458642372 0.843412
15.9573126199 0.807429
16.455983141 0.803886
16.9546539353 0.828549
17.4533250028 0.881774
17.9519963436 0.953923
18.4506679578 1.06819
18.9493398452 1.12126
19.448012006 1.1014
19.9466844402 1.11561
20.4453571479 1.07562
20.944030129 0.952074
21.4427033836 0.818928
21.9413769118 0.751552
22.4400507135 0.683849
22.9387247888 0.600386
23.4373991378 0.542865
23.9360737604 0.525049
24.4347486567 0.506848
24.9334238268 0.497497
