-24.9959277994 0.574779
-24.4960128924 0.531032
-23.9960978365 0.51764
-23.4961826317 0.488988
-22.996267278 0.451507
-22.4963517754 0.430947
-21.9964361238 0.436046
-21.4965203234 0.45017
-20.996604374 0.455271
-20.4966882757 0.455707
-19.9967720285 0.45174
-19.4968556324 0.46411
-18.9969390873 0.479871
-18.4970223933 0.465343
-17.9971055504 0.455406
-17.4971885586 0.439681
-16.9972714178 0.400653
-16.4973541281 0.374374
-15.9974366894 0.384797
-15.4975191018 0.462989
-14.9976013652 0.515675
-14.4976834798 0.548523
-13.9977654453 0.544247
-13.4978472619 0.49995
-12.9979289296 0.411618
-12.4980104483 0.322618
-11.998091818 0.260881
-11.4981730388 0.261103
-10.9982541107 0.291911
-10.4983350335 0.318731
-9.99841580743 0.30984
-9.49849643237 0.261043
-8.99857690835 0.211885
-8.49865723535 0.256842
-7.99873741338 0.354617
-7.49881744243 0.428675
-6.99889732251 0.483611
-6.49897705361 0.506825
-5.99905663573 0.47229
-5.49913606887 0.401149
-4.99921535303 0.398593
-4.49929448819 0.405048
-3.99937347437 0.341704
-3.49945231156 0.276395
-2.99953099976 0.216805
-2.49960953897 0.175029
-1.99968792917 0.134931
-1.49976617038 0.110843
-0.99984426259 0.0909887
-0.499922205797 0.0795441
0 0.076897
0.499922354803 0.071823
0.999844858616 0.0354333
1.49976751144 0.0129569
1.99969031327 0.00923764
2.49961326412 0.00565461
2.99953636398 0.00978794
3.49945961286 0.004509
3.99938301077 0
4.49930655769 0.00296311
4.99923025364 0.00426692
5.49915409861 0.000149541
5.99907809261 0.003138
6.49900223564 0.00832859
6.9989265277 0.00651399
7.49885096879 0.00292534
7.99877555892 0.0110753
8.49870029809 0.0173312
8.9986251863 0.0160217
9.49855022354 0.0266314
9.99847540983 0.0464991
10.4984007452 0.0896495
10.9983262295 0.12891
11.498251863 0.116129
11.9981776455 0.0850807
12.498103577 0.0550292
12.9980296576 0.0405287
13.4979558872 0.0363452
13.9978822659 0.0394473
14.4978087937 0.0458516
14.9977354705 0.0523799
15.4976622964 0.0476599
15.9975892713 0.0390822
16.4975163954 0.0463394
16.9974436685 0.0707577
17.4973710906 0.0669983
17.9972986618 0.0681617
18.4972263822 0.0809459
18.9971542515 0.0638359
19.49708227 0.0845398
19.9970104375 0.20036
20.4969387542 0.319061
20.9968672199 0.398857
21.4967958347 0.461502
21.9967245985 0.515944
22.4966535115 0.551155
22.9965825736 0.561225
23.4965117847 0.556061
23.996441145 0.544344
24.4963706543 0.54021
24.9963003128 0.543478
