-24.9960636802 0.359447
-24.4961460671 0.357892
-23.9962283046 0.336592
-23.4963103927 0.277299
-22.9963923315 0.248221
-22.4964741209 0.26119
-21.9965557608 0.266277
-21.4966372515 0.264482
-20.9967185927 0.251575
-20.4967997845 0.269152
-19.9968808269 0.302398
-19.49696172 0.311561
-18.9970424636 0.365834
-18.4971230579 0.433498
-17.9972035027 0.487375
-17.4972837982 0.532626
-16.9973639442 0.559216
-16.4974439408 0.564203
-15.9975237881 0.556584
-15.4976034859 0.531905
-14.9976830343 0.508358
-14.4977624333 0.480386
-13.9978416829 0.456671
-13.497920783 0.441169
-12.9979997338 0.431838
-12.4980785351 0.442661
-11.998157187 0.469241
-11.4982356894 0.511492
-10.9983140425 0.520039
-10.4983922461 0.454181
-9.99847030025 0.378834
-9.498548205 0.31216
-8.9986259603 0.273359
-8.49870356617 0.258736
-7.99878102259 0.231226
-7.49885832958 0.207981
-6.99893548712 0.214803
-6.49901249522 0.237389
-5.99908935386 0.243912
-5.49916606306 0.203105
-4.99924262281 0.143674
-4.4993190331 0.0536593
-3.99939529394 0.0120188
-3.49947140532 0
-2.99954736724 0.0029063
-2.4996231797 0.0103482
-1.99969884269 0.0113359
-1.49977435622 0.0111241
-0.999849720283 0.0149943
-0.499924934877 0.0236289
0 0.0498531
0.49992508435 0.176332
0.999850318175 0.254089
1.49977570148 0.205526
1.99970123426 0.250954
2.49962691652 0.353564
2.99955274826 0.452232
3.49947872949 0.497389
3.9994048602 0.51765
4.4993311404 0.517845
4.99925757009 0.547036
5.49918414928 0.657489
5.99911087795 0.709932
6.49903775612 0.720858
6.99896478379 0.736176
7.49889196096 0.755995
7.99881928763 0.742681
8.4987467638 0.721713
8.99867438948 0.716108
9.49860216466 0.725404
9.99853008936 0.737895
10.4984581636 0.745571
10.9983863873 0.74031
11.4983147605 0.721913
11.9982432832 0.699343
12.4981719555 0.686917
12.9981007773 0.652364
13.4980297486 0.622317
13.9979588694 0.626344
14.4978881398 0.671802
14.9978175596 0.707918
15.497747129 0.743496
15.997676848 0.796406
16.4976067164 0.85537
16.9975367344 0.914783
17.497466902 0.945175
17.9973972191 0.932838
18.4973276857 0.910476
18.9972583018 0.897107
19.4971890675 0.816318
19.9971199828 0.776491
20.4970510475 0.717841
20.9969822619 0.649285
21.4969136258 0.591122
21.9968451392 0.534061
22.4967768022 0.50076
22.9967086147 0.467456
23.4966405768 0.446054
23.9965726885 0.449336
24.4965049497 0.456858
24.9964373605 0.458495
