-24.9330177172 0.730685
-24.4343640514 0.758916
-23.9357101131 0.78803
-23.4370559023 0.819056
-22.9384014189 0.83519
-22.439746663 0.826013
-21.9410916345 0.809925
-21.4424363333 0.824841
-20.9437807595 0.858355
-20.445124913 0.870292
-19.9464687937 0.881423
-19.4478124017 0.877985
-18.9491557369 0.883412
-18.4504987992 0.89777
-17.9518415887 0.918345
-17.4531841052 0.939789
-16.9545263488 0.962478
-16.4558683195 0.987773
-15.9572100172 1.01218
-15.4585514418 1.01823
-14.9598925934 1.02534
-14.4612334718 1.01676
-13.9625740771 1.00911
-13.4639144093 0.980024
-12.9652544683 0.957842
-12.466594254 0.957274
-11.9679337665 0.925356
-11.4692730056 0.900498
-10.9706119715 0.867536
-10.4719506639 0.820622
-9.973289083 0.763497
-9.47462722864 0.724542
-8.97596510082 0.705034
-8.47730269949 0.708972
-7.97864002464 0.709882
-7.47997707623 0.711857
-6.98131385422 0.708081
-6.48265035858 0.653057
-5.98398658928 0.580423
-5.48532254628 0.567171
-4.98665822955 0.5502
-4.48799363907 0.510593
-3.98932877479 0.456059
-3.49066363668 0.381119
-2.99199822471 0.332062
-2.49333253885 0.314925
-1.99466657906 0.310439
-1.49600034532 0.280806
-0.997333837582 0.220221
-0.49866705582 0.162835
0 0.105305
0.49866732991 0.0771088
0.997334933944 0.0576859
1.49600281213 0.0100352
1.99467096451 0
2.49333939112 0.0115014
2.99200809197 0.016489
3.49067706712 0.0189558
3.98934631658 0.0176338
4.4880158404 0.0123516
4.98668563861 0.0155602
5.48535571123 0.0505581
5.98402605831 0.113527
6.48269667988 0.194605
6.98136757596 0.269479
7.48003874659 0.345979
7.9787101918 0.418842
8.47738191164 0.470621
8.97605390612 0.500827
9.47472617528 0.515035
9.97339871916 0.535558
10.4720715378 0.584894
10.9707446312 0.661265
11.4694179994 0.72433
11.9680916425 0.740073
12.4667655604 0.69043
12.9654397533 0.598812
13.4641142211 0.486577
13.9627889638 0.437413
14.4614639816 0.416279
14.9601392745 0.403689
15.4588148424 0.410639
15.9574906854 0.408513
16.4561668035 0.407244
16.9548431969 0.416188
17.4535198654 0.438771
17.9521968092 0.481105
18.4508740282 0.55858
18.9495515225 0.677722
19.4482292922 0.769531
19.9469073373 0.814164
20.4455856577 0.846754
20.9442642536 0.860216
21.442943125 0.82514
21.9416222718 0.76962
22.4403016942 0.752012
22.9389813922 0.749818
23.4376613657 0.752215
23.9363416149 0.73596
24.4350221397 0.687826
24.9337029403 0.692832
