-24.9327815074 2.43223
-24.4341325234 2.45963
-23.9354832686 2.47162
-23.436833743 2.43835
-22.9381839467 2.35167
-22.4395338795 2.30057
-21.9408835415 2.26365
-21.4422329325 2.2313
-20.9435820526 2.19971
-20.4449309017 2.15587
-19.9462794799 2.14842
-19.4476277869 2.15319
-18.948975823 2.13963
-18.4503235879 2.11935
-17.9516710817 2.09756
-17.4530183043 2.06918
-16.9543652557 2.04639
-16.4557119358 2.03437
-15.9570583447 2.03678
-15.4584044823 2.03779
-14.9597503486 2.03328
-14.4610959435 2.00261
-13.9624412669 1.95092
-13.463786319 1.89762
-12.9651310996 1.83897
-12.4664756086 1.80809
-11.9678198462 1.80288
-11.4691638121 1.79597
-10.9705075065 1.74885
-10.4718509292 1.66455
-9.97319408029 1.5989
-9.47453695965 1.54352
-8.97587956727 1.50321
-8.47722190312 1.47534
-7.97856396718 1.4345
-7.4799057594 1.40625
-6.98124727975 1.38301
-6.4825885282 1.36879
-5.98392950471 1.36008
-5.48527020926 1.3257
-4.98661064181 1.28611
-4.48795080232 1.25866
-3.98929069077 1.22191
-3.49063030712 1.18936
-2.99196965134 1.17298
-2.49330872339 1.16697
-1.99464752324 1.18318
-1.49598605086 1.16732
-0.997324306216 1.07792
-0.498662289274 1.00866
0 0.950445
0.498662561637 0.9328
0.997325395672 0.956852
1.49598850214 0.922639
1.99465188106 0.916703
2.49331553249 0.926346
2.99197945644 0.91502
3.49064365295 0.902425
3.98930812206 0.881813
4.4879728638 0.873395
4.9866378782 0.934304
5.48530316529 0.985547
5.98396872511 1.00121
6.48263455769 1.00466
6.98130066306 0.996949
7.47996704126 0.983888
7.97863369232 1.03459
8.47730061627 1.11189
8.97596781314 1.1194
9.47463528297 1.08573
9.97330302579 1.0887
10.4719710416 1.11588
10.9706393305 1.13022
11.4693078925 1.13914
11.9679767276 1.14079
12.4666458359 1.14108
12.9653152174 1.1689
13.463984872 0.955546
13.9626548 0.365666
14.4613250012 0
14.9599954757 0.0253471
15.4586662236 0.0835376
15.9573372449 0.176609
16.4560085395 0.350769
16.9546801077 0.540683
17.4533519493 0.674255
17.9520240644 0.750058
18.4506964531 0.826383
18.9493691154 0.958204
19.4480420513 1.09824
19.9467152608 1.17289
20.445388744 1.2776
20.9440625009 1.50268
21.4427365316 1.65493
21.941410836 1.75632
22.4400854143 1.80214
22.9387602664 1.82115
23.4374353924 1.80524
23.9361107923 1.78594
24.4347864661 1.76135
24.9334624139 1.75538
