-24.964829105 0.973152
-24.465537894 0.986318
-23.966246464 1.00771
-23.4669548151 1.07521
-22.9676629472 1.15649
-22.4683708603 1.22037
-21.9690785543 1.23286
-21.4697860294 1.22381
-20.9704932854 1.19224
-20.4712003223 1.14434
-19.9719071401 1.08859
-19.4726137388 1.05263
-18.9733201184 1.04838
-18.4740262789 1.053
-17.9747322201 1.04971
-17.4754379423 1.03591
-16.9761434452 1.02371
-16.4768487289 1.02811
-15.9775537934 1.01684
-15.4782586386 0.955322
-14.9789632646 0.870661
-14.4796676713 0.787131
-13.9803718587 0.737847
-13.4810758268 0.702201
-12.9817795755 0.675707
-12.4824831049 0.656627
-11.9831864149 0.639534
-11.4838895056 0.611966
-10.9845923768 0.570693
-10.4852950286 0.516807
-9.98599746101 0.474362
-9.48669967394 0.427056
-8.98740166739 0.388207
-8.48810344135 0.342416
-7.98880499581 0.279077
-7.48950633075 0.19448
-6.99020744614 0.106348
-6.49090834197 0.0421667
-5.99160901822 0.0218127
-5.49230947489 0.0118982
-4.99300971194 0.0176889
-4.49370972936 0.0117146
-3.99440952713 0.00511776
-3.49510910524 0.00277268
-2.99580846368 0.0012986
-2.49650760241 0.0110761
-1.99720652143 0.0219145
-1.49790522071 0.016847
-0.998603700249 0.00885875
-0.499301960017 0.000457025
0 0.00770802
0.499302179817 0.0175399
0.998604579455 0.0219761
1.49790719893 0.0167867
1.99721003826 0.00645816
2.49651309745 0
2.99581637654 0.00364136
3.49511987553 0.00439967
3.99442359445 0.00209118
4.4937275333 0.000586349
4.99303169211 0.00265376
5.4923360709 0.00274782
5.99164066968 0.00387798
6.49094548846 0.00766444
6.99025052727 0.0252384
7.48955578613 0.0590797
7.98886126505 0.102203
8.48816696404 0.137789
8.98747288313 0.153649
9.48677902233 0.134981
9.98608538166 0.121181
10.4853919611 0.0898528
10.9846987608 0.0578707
11.4840057806 0.0737695
11.9833130206 0.0926721
12.4826204809 0.100296
12.9819281613 0.0866156
13.481236062 0.0877505
13.980544183 0.100753
14.4798525243 0.119196
14.9791610859 0.152652
15.4784698677 0.20982
15.97777887 0.287638
16.4770880925 0.396878
16.9763975355 0.490421
17.4757071988 0.565459
17.9750170825 0.648381
18.4743271867 0.696553
18.9736375113 0.749668
19.4729480563 0.810476
19.9722588218 0.850274
20.4715698078 0.841989
20.9708810144 0.829206
21.4701924414 0.816945
21.969504089 0.810912
22.4688159571 0.827558
22.9681280458 0.864026
23.4674403551 0.892973
23.966752885 0.940046
24.4660656356 1.01077
24.9653786067 1.08908
