-24.933032938 0.747108
-24.4343789701 0.727892
-23.9357247297 0.694787
-23.4370702167 0.697316
-22.938415431 0.70024
-22.4397603727 0.72805
-21.9411050417 0.732111
-21.442449438 0.694937
-20.9437935614 0.684022
-20.4451374121 0.71647
-19.94648099 0.780768
-19.447824295 0.895197
-18.949167327 0.957133
-18.4505100862 0.952389
-17.9518525724 0.921609
-17.4531947855 0.941181
-16.9545367257 0.941442
-16.4558783928 0.939316
-15.9572197868 0.915469
-15.4585609076 0.897807
-14.9599017553 0.902857
-14.4612423298 0.913504
-13.962582631 0.945954
-13.463922659 0.971866
-12.9652624137 0.950757
-12.4666018951 0.926393
-11.9679411031 0.902982
-11.4692800377 0.849888
-10.9706186989 0.794924
-10.4719570866 0.707547
-9.97329520078 0.614354
-9.47463304146 0.526318
-8.97597060858 0.478201
-8.47730790211 0.455478
-7.978644922 0.431142
-7.47998166824 0.444516
-6.98131814078 0.474189
-6.4826543396 0.498935
-5.98399026465 0.495413
-5.48532591591 0.462384
-4.98666129335 0.446826
-4.48799639692 0.448341
-3.98933122661 0.456908
-3.49066578237 0.462778
-2.99200006417 0.458213
-2.49333407197 0.410969
-1.99466780576 0.357835
-1.49600126549 0.342402
-0.997334451126 0.355202
-0.498667362641 0.312793
0 0.268503
0.498667636829 0.229251
0.99733554788 0.218424
1.49600373319 0.206598
1.99467219278 0.181612
2.49334092669 0.141653
2.99200993496 0.0948973
3.49067921761 0.0450687
3.98934877468 0.00480047
4.4880186062 0
4.98668871221 0.00859626
5.48535909274 0.0169369
5.98402974781 0.0224655
6.48270067747 0.0196957
6.98137188174 0.0263463
7.48004336067 0.0432674
7.97871511427 0.0417872
8.47738714259 0.0216606
8.97605944566 0.0157813
9.4747320235 0.0210931
9.97340487616 0.0249593
10.4720780037 0.0190101
10.970751406 0.00638371
11.4694250833 0.0146607
11.9680990356 0.0257306
12.4667732628 0.0276889
12.965447765 0.0287417
13.4641225423 0.0282214
13.9627975946 0.0290026
14.4614729221 0.0381297
14.9601485247 0.0564877
15.4588244024 0.100532
15.9575005554 0.193341
16.4561769836 0.30233
16.9548536871 0.395396
17.4535306659 0.439141
17.95220792 0.429121
18.4508854495 0.437177
18.9495632543 0.456244
19.4482413347 0.466099
19.9469196905 0.47988
20.4455983217 0.5414
20.9442772286 0.6108
21.4429564109 0.619296
21.9416358689 0.753293
22.4403156025 1.0141
22.9389956118 1.23763
23.4376758968 1.25321
23.9363564575 1.10807
24.435037294 1.06425
24.9337184062 1.13856
