-24.9335266816 0.298512
-24.4348628997 0.288583
-23.9361988427 0.279905
-23.4375345107 0.268759
-22.9388699035 0.262
-22.4402050212 0.267801
-21.9415398637 0.311234
-21.442874431 0.391831
-20.944208723 0.473283
-20.4455427398 0.515885
-19.9468764812 0.540953
-19.4482099473 0.574855
-18.949543138 0.597568
-18.4508760532 0.613049
-17.952208693 0.6333
-17.4535410574 0.647494
-16.9548731462 0.683535
-16.4562049595 0.706235
-15.9575364972 0.726762
-15.4588677593 0.748734
-14.9601987457 0.753498
-14.4615294565 0.769
-13.9628598915 0.774692
-13.4641900508 0.758584
-12.9655199343 0.763973
-12.466849542 0.791879
-11.9681788739 0.812961
-11.4695079299 0.812225
-10.9708367099 0.814334
-10.4721652141 0.783764
-9.97349344221 0.775826
-9.47482139436 0.771234
-8.97614907047 0.768531
-8.4774764705 0.708007
-7.97880359443 0.649536
-7.48013044221 0.588264
-6.98145701383 0.542746
-6.48278330924 0.486495
-5.98410932841 0.417155
-5.48543507131 0.33578
-4.98676053791 0.238918
-4.48808572817 0.155805
-3.98941064206 0.0935229
-3.49073527955 0.116275
-2.99205964061 0.113394
-2.4933837252 0.0991248
-1.99470753329 0.0839938
-1.49603106485 0.0832012
-0.99735431984 0.079342
-0.498677298235 0.0788047
0 0.0990713
0.498677574898 0.1185
0.997355426492 0.108317
1.49603355481 0.108148
1.9947119599 0.120423
2.49339064177 0.128616
2.99206960048 0.129544
3.49074883604 0.116091
3.98942834849 0.0988736
4.48810813787 0.0968992
4.9867882042 0.0940333
5.48546854753 0.0907938
5.98414916787 0.0853067
6.48283006527 0.0763693
6.98151123976 0.0458066
7.48019269137 0.0218312
7.97887442013 0.0277762
8.47755642607 0.0184908
8.97623870924 0.00302192
9.47492126965 0
9.97360410734 0.00883818
10.4722872224 0.00807885
10.9709706147 0.00658734
11.4696542844 0.0221267
11.9683382316 0.0531915
12.4670224562 0.0864075
12.9657069583 0.148046
13.4643917379 0.232339
13.963076795 0.280302
14.4617621297 0.307069
14.960447742 0.314164
15.4591336319 0.360103
15.9578197996 0.436168
16.4565062449 0.530236
16.9551929679 0.62177
17.4538799688 0.645821
17.9525672474 0.604273
18.4512548039 0.579692
18.9499426382 0.565561
19.4486307505 0.559196
19.9473191406 0.547982
20.4460078088 0.533914
20.9446967549 0.523283
21.4433859791 0.525852
21.9420754813 0.535787
22.4407652616 0.532543
22.93945532 0.518056
23.4381456566 0.511232
23.9368362714 0.509367
24.4355271644 0.516575
24.9342183357 0.537617
