-24.9327730959 1.66451
-24.4341242788 1.62451
-23.935475191 1.6034
-23.4368258324 1.55681
-22.9381762031 1.50848
-22.4395263031 1.47055
-21.9408761322 1.42985
-21.4422256904 1.42738
-20.9435749778 1.41592
-20.4449239943 1.3676
-19.9462727398 1.32721
-19.4476212143 1.30669
-18.9489694178 1.28694
-18.4503173503 1.27292
-17.9516650116 1.27423
-17.4530124019 1.2382
-16.954359521 1.21097
-16.4557063689 1.1963
-15.9570529457 1.19369
-15.4583992511 1.19645
-14.9597452853 1.19611
-14.4610910482 1.18016
-13.9624365397 1.16411
-13.4637817598 1.14385
-12.9651267086 1.09188
-12.4664713858 0.998954
-11.9678157916 0.908027
-11.4691599259 0.859086
-10.9705037886 0.830563
-10.4718473798 0.803677
-9.97319069932 0.788724
-9.47453374721 0.733413
-8.97587652341 0.681461
-8.47721902791 0.668348
-7.97856126066 0.625141
-7.47990322162 0.579546
-6.98124491078 0.522116
-6.48258632808 0.5169
-5.98392747351 0.505523
-5.48526834703 0.48663
-4.98660894859 0.476236
-4.48794927818 0.433761
-3.98928933576 0.390342
-3.4906291213 0.367718
-2.99196863475 0.365689
-2.4933078761 0.34785
-1.9946468453 0.308747
-1.49598554232 0.279967
-0.997323967136 0.280967
-0.498662119707 0.27482
0 0.280528
0.498662392016 0.232173
0.997325056374 0.175998
1.49598799311 0.0783663
1.99465120225 0.0302783
2.49331468384 0.0340006
2.99197843789 0.0323596
3.49064246446 0.0203475
3.98930676357 0
4.48797133525 0.00433025
4.98663617953 0.0223943
5.48530129646 0.0185055
5.98396668606 0.0052603
6.48263234836 0.000938278
6.9812982834 0.0308968
7.47996449122 0.0965661
7.97863097183 0.176859
8.47729772529 0.24345
8.97596475161 0.314781
9.47463205084 0.419056
9.973299623 0.56459
10.4719674681 0.6363
10.9706355863 0.63632
11.4693039774 0.643575
11.9679726417 0.660643
12.466641579 0.669641
12.9653107895 0.680664
13.4639802731 0.743552
13.96265003 0.789215
14.46132006 0.79011
14.9599903634 0.79527
15.45866094 0.829516
15.9573317899 0.901332
16.4560029133 0.948133
16.95467431 0.966447
17.4533459801 0.951541
17.9520179237 0.896547
18.4506901408 0.882992
18.9493626315 0.832807
19.4480353957 0.764918
19.9467084334 0.668639
20.4453817449 0.605249
20.9440553299 0.568342
21.4427291887 0.54326
21.9414033212 0.502919
22.4400777274 0.508274
22.9387524074 0.546664
23.4374273613 0.600329
23.936102589 0.651067
24.4347780906 0.698864
24.9334538661 0.739747
