-24.9551032842 0.358153
-24.4560070412 0.317417
-23.9569105609 0.320697
-23.4578138433 0.313256
-22.9587168883 0.294945
-22.459619696 0.262232
-21.9605222662 0.188081
-21.4614245991 0.163981
-20.9623266945 0.194609
-20.4632285524 0.253131
-19.9641301729 0.262787
-19.4650315559 0.275236
-18.9659327013 0.296723
-18.4668336092 0.329064
-17.9677342795 0.389158
-17.4686347122 0.455109
-16.9695349073 0.482352
-16.4704348648 0.520884
-15.9713345846 0.600781
-15.4722340667 0.705759
-14.9731333111 0.688674
-14.4740323178 0.673364
-13.9749310867 0.665781
-13.4758296179 0.668828
-12.9767279112 0.670529
-12.4776259668 0.64943
-11.9785237845 0.64992
-11.4794213643 0.642243
-10.9803187063 0.624496
-10.4812158103 0.587457
-9.98211267647 0.58164
-9.48300930465 0.559321
-8.98390569485 0.527832
-8.48480184706 0.547375
-7.98569776126 0.543759
-7.48659343741 0.538418
-6.9874888755 0.535399
-6.48838407552 0.506292
-5.98927903742 0.448097
-5.4901737612 0.412692
-4.99106824682 0.312387
-4.49196249428 0.217627
-3.99285650354 0.202488
-3.49375027459 0.171412
-2.99464380739 0.126344
-2.49553710194 0.090307
-1.99643015821 0.0775855
-1.49732297617 0.0688704
-0.998215555801 0.0635695
-0.499107897085 0.0565099
0 0.0530116
0.499108135479 0.0560192
0.998216509372 0.05251
1.4973251217 0.0495735
1.99643397249 0.048097
2.49554306176 0.0495514
2.99465238954 0.0556457
3.49376195584 0.0534064
3.99287176068 0.0514698
4.4919818041 0.0572958
4.99109208611 0.0703268
5.49020260672 0.104967
5.98931336598 0.171166
6.48842436389 0.273317
6.98753560048 0.352039
7.48664707578 0.373709
7.98575878979 0.373411
8.48487074256 0.426281
8.98398293408 0.510758
9.4830953644 0.600195
9.98220803353 0.667035
10.4813209415 0.733753
10.9804340883 0.810928
11.479547474 0.838497
11.9786610986 0.851215
12.4777749621 0.87389
12.9768890646 0.781107
13.476003406 0.63276
13.9751179864 0.474539
14.4742328058 0.332855
14.9733478643 0.263584
15.4724631618 0.187947
15.9715786983 0.0925099
16.470694474 0.0646102
16.9698104888 0
17.4689267427 0.0843688
17.9680432358 0.192105
18.4671599681 0.31018
18.9662769396 0.376711
19.4653941503 0.378156
19.9645116002 0.34405
20.4636292895 0.322086
20.962747218 0.372898
21.4618653858 0.531509
21.960983793 0.612208
22.4601024395 0.632103
22.9592213254 0.639232
23.4583404507 0.711687
23.9574598155 0.703213
24.4565794196 0.735377
24.9556992633 0.762332
