-24.9329986082 0.47538
-24.4343453215 0.460206
-23.9356917625 0.456096
-23.437037931 0.470523
-22.9383838272 0.48796
-22.439729451 0.50108
-21.9410748022 0.495832
-21.442419881 0.47948
-20.9437646872 0.465499
-20.4451092208 0.456231
-19.9464534818 0.455122
-19.4477974701 0.461063
-18.9491411858 0.48027
-18.4504846288 0.495935
-17.951827799 0.514127
-17.4531706965 0.535728
-16.9545133211 0.558946
-16.4558556729 0.5766
-15.9571977518 0.573843
-15.4585395578 0.556353
-14.9598810909 0.536351
-14.461222351 0.516407
-13.9625633381 0.516829
-13.4639040521 0.538423
-12.9652444931 0.536502
-12.4665846609 0.551
-11.9679245556 0.545314
-11.4692641772 0.559513
-10.9706035255 0.554517
-10.4719426006 0.520543
-9.97328140237 0.48936
-9.47461993086 0.464668
-8.97595818602 0.447203
-8.47729616781 0.425658
-7.97863387619 0.405001
-7.47997131113 0.377396
-6.98130847259 0.328171
-6.48264536055 0.285273
-5.98398197498 0.259046
-5.48531831583 0.226623
-4.98665438307 0.184452
-4.48799017668 0.155634
-3.98932569661 0.132459
-3.49066094285 0.123216
-2.99199591534 0.126226
-2.49333061407 0.129005
-1.99466503899 0.138197
-1.49599919008 0.146264
-0.9973330673 0.139121
-0.498666670617 0.127529
0 0.116428
0.498666944584 0.116481
0.997334163169 0.131708
1.49600165579 0.130492
1.99466942247 0.141335
2.49333746325 0.148879
2.99200577817 0.140473
3.49067436725 0.15237
3.98934323053 0.203122
4.48801236804 0.260607
4.98668177981 0.326442
5.48535146588 0.376076
5.98402142628 0.400507
6.48269166104 0.412747
6.98136217019 0.408765
7.48003295377 0.407166
7.97870401181 0.46641
8.47737534435 0.535752
8.97604695141 0.580871
9.47471883303 0.609984
9.97339098925 0.606162
10.4720634201 0.578381
10.9707361256 0.549049
11.4694091058 0.530645
11.9680823607 0.524407
12.4667558903 0.513963
12.9654296948 0.505392
13.4641037741 0.501203
13.9627781282 0.531019
14.4614527572 0.568313
14.9601276611 0.593702
15.45880284 0.61226
15.9574782939 0.660892
16.4561540228 0.708598
16.9548300267 0.752972
17.4535063058 0.784007
17.9521828599 0.800564
18.4508596892 0.782977
18.9495367936 0.680032
19.4482141733 0.491416
19.9468918283 0.360722
20.4455697585 0.264452
20.944247964 0.150073
21.4429264448 0.0714322
21.9416052011 0.0481044
22.4402842327 0.0522636
22.9389635398 0.050467
23.4376431224 0.0445959
23.9363229805 0.0349368
24.4350031141 0.0216067
24.9336835233 0
