-24.9504191816 1.30604
-24.4514167455 1.26111
-23.9524140671 1.30901
-23.4534111463 1.31177
-22.9544079831 1.2849
-22.4554045774 1.22033
-21.9564009293 1.1731
-21.4573970387 1.11205
-20.9583929055 1.09832
-20.4593885299 1.11108
-19.9603839116 1.07809
-19.4613790508 1.06069
-18.9623739474 1.08403
-18.4633686013 1.13013
-17.9643630126 1.20799
-17.4653571812 1.3069
-16.9663511071 1.35422
-16.4673447902 1.35985
-15.9683382306 1.337
-15.4693314282 1.25815
-14.970324383 1.15889
-14.471317095 1.06314
-13.9723095641 1.00568
-13.4733017903 0.96534
-12.9742937737 0.922961
-12.4752855141 0.88687
-11.9762770115 0.849745
-11.477268266 0.889103
-10.9782592774 0.950672
-10.4792500459 0.941242
-9.98024057123 0.905537
-9.48123085353 0.868433
-8.98222089273 0.815617
-8.4832106888 0.767822
-7.98420024172 0.735441
-7.48518955146 0.698015
-6.98617861801 0.668513
-6.48716744133 0.614849
-5.9881560214 0.56588
-5.4891443582 0.488235
-4.99013245171 0.395425
-4.49112030189 0.312983
-3.99210790872 0.378961
-3.49309527219 0.445092
-2.99408239225 0.46648
-2.4950692689 0.45166
-1.99605590211 0.367665
-1.49704229184 0.236357
-0.998028438088 0.139976
-0.499014340815 0.0880169
0 0.0602524
0.499014584381 0.0470613
0.998029412352 0.0286904
1.49704448394 0
1.99605979916 0.013424
2.49507535805 0.0681758
2.99409116063 0.0962841
3.49310720691 0.0811037
3.99212349694 0.0818723
4.49114003072 0.0956837
4.99015680829 0.138683
5.48917382967 0.206834
5.98819109488 0.237387
6.48720860395 0.264182
6.98622635691 0.315364
7.48524435377 0.392871
7.98426259456 0.640236
8.4832810793 0.915228
8.98229980803 1.05096
9.48131878075 1.12133
9.98033799751 1.11765
10.4793574583 1.07041
10.9783771632 1.03335
11.4773971122 0.981702
11.9764173053 0.895972
12.4754377426 0.763965
12.974458424 0.619426
13.4734793496 0.496028
13.9725005195 0.401396
14.4715219336 0.380261
14.9705435919 0.374706
15.4695654946 0.383834
15.9685876416 0.378212
16.4676100329 0.368987
16.9666326686 0.396263
17.4656555487 0.459152
17.9646786732 0.402301
18.4637020421 0.388965
18.9627256555 0.486052
19.4617495134 0.56881
19.9607736158 0.567312
20.4597979627 0.496013
20.9588225542 0.363904
21.4578473903 0.270764
21.956872471 0.241422
22.4558977963 0.240052
22.9549233663 0.251346
23.4539491809 0.282756
23.9529752403 0.323231
24.4520015444 0.382726
24.9510280932 0.407723
