-24.9504559503 1.29552
-24.4514527841 1.31416
-23.9524493753 1.37332
-23.4534457239 1.35845
-22.9544418299 1.2863
-22.4554376933 1.21961
-21.9564333139 1.2013
-21.4574286919 1.20968
-20.9584238271 1.21521
-20.4594187196 1.19676
-19.9604133693 1.20276
-19.4614077762 1.24823
-18.9624019403 1.27129
-18.4633958615 1.23816
-17.9643895399 1.20927
-17.4653829753 1.18071
-16.9663761679 1.15533
-16.4673691175 1.13201
-15.9683618241 1.0864
-15.4693542877 1.02336
-14.9703465083 0.982233
-14.4713384858 0.869419
-13.9723302203 0.781145
-13.4733217117 0.725661
-12.97431296 0.698467
-12.4753039651 0.718166
-11.9762947271 0.815802
-11.4772852458 0.846022
-10.9782755214 0.82666
-10.4792655537 0.821935
-9.98025534273 0.821473
-9.48124488848 0.775657
-8.98223419092 0.681716
-8.48322325001 0.573245
-7.98421206574 0.465578
-7.48520063809 0.377305
-6.98618896701 0.315579
-6.48717705251 0.27551
-5.98816489454 0.257275
-5.48915249308 0.275373
-4.99013984812 0.268358
-4.49112695961 0.232321
-3.99211382755 0.232768
-3.49310045191 0.253716
-2.99408683266 0.2591
-2.49507296977 0.248096
-1.99605886323 0.227493
-1.497044513 0.200196
-0.998029919074 0.176274
-0.499015081414 0.155148
0 0.141825
0.499015325193 0.137826
0.998030894189 0.102274
1.49704670701 0.0422039
1.99606276369 0
2.49507906424 0.0100798
2.99409560869 0.0487815
3.49311239707 0.116748
3.9921294294 0.148373
4.4911467057 0.183144
4.990164226 0.29272
5.48918199032 0.439934
5.98819999868 0.52902
6.48721825112 0.593534
6.98623674765 0.645816
7.4852554883 0.666951
7.9842744731 0.678711
8.48329370206 0.669872
8.98231317521 0.668829
9.48133289258 0.789463
9.9803528542 1.00196
10.4793730601 1.16367
10.9783935102 1.18288
11.4774142047 1.05515
11.9764351435 0.839493
12.4754563267 0.735125
12.9744777543 0.773284
13.4734994262 0.840246
13.9725213427 0.854024
14.4715435035 0.862351
14.9705659089 0.963435
15.4695885587 1.03079
15.9686114531 1.03417
16.467634592 1.02638
16.9666579756 1.00076
17.4656816037 0.982942
17.9647054764 0.98117
18.4637295938 1.11722
18.9627539559 1.28798
19.4617785627 1.3176
19.9608034142 1.28785
20.4598285105 1.24515
20.9588538515 1.20228
21.4578794373 1.1196
21.9569052679 1.00112
22.4559313434 0.836498
22.9549576638 0.716774
23.453984229 0.610926
23.9530110392 0.579055
24.4520380943 0.519582
24.9510653944 0.484134
