-24.9328066501 1.19745
-24.4341571672 1.18717
-23.9355074134 1.17968
-23.4368573887 1.21093
-22.938207093 1.21139
-22.4395565263 1.21465
-21.9409056886 1.184
-21.4422545798 1.13295
-20.9436031999 1.11364
-20.4449515489 1.10449
-19.9462996267 1.06179
-19.4476474333 1.00293
-18.9489949686 0.976857
-18.4503422328 0.950878
-17.9516892256 0.94771
-17.453035947 0.943638
-16.9543823971 0.933084
-16.4557285758 0.918475
-15.9570744831 0.878988
-15.4584201189 0.826508
-14.9597654832 0.776605
-14.4611105759 0.741514
-13.9624553971 0.712944
-13.4637999467 0.677838
-12.9651442247 0.646838
-12.466488231 0.612934
-11.9678319656 0.601717
-11.4691754285 0.595133
-10.9705186196 0.59303
-10.4718615389 0.575864
-9.97320418634 0.535985
-9.47454656195 0.439264
-8.97588866565 0.368439
-8.47723049743 0.311981
-7.97857205724 0.250454
-7.47991334505 0.191051
-6.98125436083 0.177477
-6.48259510455 0.189938
-5.98393557617 0.136229
-5.48527577566 0.0906694
-4.98661570299 0.0869979
-4.48795535812 0.0892694
-3.98929474102 0.0712664
-3.49063385166 0.0377587
-2.99197269 0.054253
-2.49331125602 0.0515859
-1.99464954967 0.0342653
-1.49598757093 0.0189603
-0.997325319756 0.00961573
-0.498662796125 0.00145927
0 0
0.498663068652 0.012301
0.997326409864 0.0197607
1.49599002367 0.0187808
1.9946539101 0.0375739
2.49331806919 0.0728873
2.99198250097 0.0761857
3.49064720548 0.0732875
3.98931218274 0.0823335
4.4879774328 0.112748
4.98664295568 0.217221
5.48530875141 0.323882
5.98397482004 0.409176
6.48264116159 0.458589
6.98130777609 0.491409
7.47997466359 0.501444
7.9786418241 0.490178
8.47730925767 0.445253
8.97597696433 0.341276
9.4746449441 0.268472
9.97331319703 0.322644
10.4719817231 0.394859
10.9706505225 0.438495
11.4693195951 0.46301
11.9679889409 0.491433
12.4666585601 0.515214
12.9653284527 0.534537
13.4639986186 0.558385
13.9626690579 0.60127
14.4613397707 0.666397
14.960010757 0.733279
15.4586820168 0.79323
15.9573535501 0.856903
16.456025357 0.92327
16.9546974375 0.988079
17.4533697917 1.02488
17.9520424195 1.03655
18.4507153211 1.04292
18.9493884964 1.02775
19.4480619455 1.0427
19.9467356684 1.05869
20.4454096651 1.07671
20.9440839357 1.07546
21.4427584802 1.04564
21.9414332987 1.0249
22.4401083911 1.02304
22.9387837575 1.01627
23.437459398 1.02751
23.9361353126 1.01606
24.4348115012 1.0207
24.933487964 1.02321
