-24.9504436943 1.22071
-24.4514407715 1.19373
-23.9524376062 1.2459
-23.4534341983 1.26461
-22.9544305479 1.27042
-22.4554266549 1.31231
-21.9564225193 1.34977
-21.457418141 1.34593
-20.9584135201 1.32555
-20.4594086566 1.3223
-19.9604035503 1.33706
-19.4613982013 1.34267
-18.9623926095 1.31143
-18.463386775 1.24944
-17.9643806976 1.16412
-17.4653743775 1.07789
-16.9663678145 1.0032
-16.4673610086 0.942148
-15.9683539598 0.872009
-15.469346668 0.859297
-14.9703391334 0.850712
-14.4713313557 0.873506
-13.9723233351 0.89979
-13.4733150714 0.931727
-12.9743065647 0.941063
-12.4752978149 0.944523
-11.976288822 0.946483
-11.477279586 0.944725
-10.9782701069 0.879043
-10.4792603845 0.753615
-9.98025041901 0.646075
-9.48124021027 0.534521
-8.98222975829 0.448124
-8.48321906303 0.427888
-7.98420812449 0.44444
-7.48519694263 0.440358
-6.98618551742 0.398416
-6.48717384885 0.385665
-5.98816193689 0.390271
-5.48914978152 0.391308
-4.9901373827 0.365937
-4.49112474042 0.323115
-3.99211185465 0.304285
-3.49309872537 0.306466
-2.99408535256 0.294517
-2.49507173618 0.263775
-1.99605787621 0.242564
-1.49704377263 0.268494
-0.998029425423 0.258028
-0.499014834553 0.219595
0 0.168605
0.499015078262 0.115833
0.998030400255 0.0687709
1.49704596601 0.0332183
1.99606177554 0.0165515
2.49507782887 0.0101062
2.99409412604 0
3.49311066706 0.0511479
3.99212745196 0.173849
4.49114448076 0.274041
4.99016175349 0.353258
5.48917927017 0.462995
5.98819703082 0.537382
6.48721503547 0.613212
6.98623328415 0.631735
7.48525177688 0.617648
7.98427051368 0.593568
8.48328949458 0.59142
8.98230871959 0.643139
9.48132818876 0.730386
9.98034790209 0.816359
10.4793678596 0.864593
10.9783880614 0.870004
11.4774085073 0.873345
11.9764291976 0.894327
12.4754501321 0.932046
12.974471311 1.00073
13.4734927342 1.09031
13.9725144018 1.18021
14.4715363137 1.22823
14.9705584701 1.12525
15.4695808709 0.961731
15.9686035161 0.883328
16.4676264059 0.807014
16.9666495401 0.708557
17.4656729189 0.659864
17.9646965422 0.752532
18.4637204102 0.907939
18.9627445227 1.07031
19.4617688798 1.14924
19.9607934816 1.09797
20.4598183281 0.983829
20.9588434193 0.855485
21.4578687552 0.625618
21.9568943359 0.384476
22.4559201613 0.200694
22.9549462316 0.187814
23.4539725466 0.187168
23.9529991065 0.194449
24.4520259113 0.223616
24.951052961 0.269501
