-24.9317874372 0.784989
-24.433158443 0.80577
-23.9345291737 0.808184
-23.4358996292 0.800533
-22.9372698094 0.823767
-22.4386397144 0.862319
-21.9400093441 0.867471
-21.4413786985 0.87035
-20.9427477776 0.883724
-20.4441165812 0.856853
-19.9454851094 0.819195
-19.4468533621 0.79436
-18.9482213394 0.77992
-18.4495890411 0.759586
-17.9509564673 0.740792
-17.4523236178 0.720412
-16.9536904928 0.695525
-16.455057092 0.68363
-15.9564234156 0.689185
-15.4577894634 0.699073
-14.9591552355 0.708592
-14.4605207318 0.725518
-13.9618859522 0.735724
-13.4632508968 0.72721
-12.9646155655 0.697104
-12.4659799582 0.674533
-11.967344075 0.670346
-11.4687079158 0.649516
-10.9700714805 0.615974
-10.4714347692 0.57619
-9.97279778177 0.543978
-9.4741605182 0.520757
-8.97552297847 0.491061
-8.47688516253 0.430948
-7.97824707036 0.362816
-7.47960870191 0.303665
-6.98097005717 0.240854
-6.48233113608 0.18816
-5.98369193863 0.163372
-5.48505246477 0.145504
-4.98641271447 0.0880412
-4.4877726877 0
-3.98913238442 0.00471581
-3.49049180461 0.0554872
-2.99185094822 0.0523791
-2.49320981523 0.0366246
-1.9945684056 0.0360994
-1.49592671929 0.0393973
-0.99728475628 0.0335415
-0.498642516527 0.0289152
0 0.0301442
0.498642793333 0.0205246
0.997285863508 8.77753e-05
1.49592921056 0.00134878
1.99457283451 0.0208499
2.49321673541 0.0326001
2.99186091328 0.0342863
3.49050536817 0.0348365
3.98915010009 0.0337177
4.48779510909 0.0573479
4.98644039519 0.0977733
5.48508595844 0.158958
5.98373179887 0.296989
6.4823779165 0.407387
6.98102431138 0.473503
7.47967098353 0.525827
7.97831793299 0.528766
8.4769651598 0.544867
8.97561266398 0.541363
9.47426044557 0.513882
9.9729085046 0.438375
10.4715568411 0.364787
10.9702054551 0.258053
11.4688543467 0.177569
11.9675035158 0.130676
12.4661529626 0.116972
12.964802687 0.141603
13.463452689 0.201455
13.9621029688 0.298493
14.4607535263 0.403317
14.9594043616 0.510694
15.4580554748 0.629939
15.9567068657 0.711053
16.4553585345 0.820185
16.9540104813 0.881264
17.452662706 0.942089
17.9513152086 0.947654
18.4499679893 0.966909
18.948621048 1.02339
19.4472743848 1.10165
19.9459279997 1.18479
20.4445818927 1.24078
20.9432360639 1.27757
21.4418905134 1.26917
21.940545241 1.26859
22.439200247 1.28103
22.9378555312 1.23683
23.4365110938 1.18308
23.9351669348 1.13668
24.4338230542 1.10368
24.932479452 1.06286
