-24.9317909886 0.252085
-24.433161924 0.250888
-23.9345325842 0.268789
-23.4359029692 0.283875
-22.9372730789 0.276354
-22.4386429134 0.296587
-21.9400124725 0.363865
-21.4413817563 0.407832
-20.9427507647 0.392839
-20.4441194976 0.331392
-19.9454879552 0.240974
-19.4468561372 0.135047
-18.9482240438 0.136792
-18.4495916747 0.143183
-17.9509590301 0.166974
-17.4523261099 0.174644
-16.953692914 0.176566
-16.4550594425 0.180716
-15.9564256952 0.203204
-15.4577916721 0.203694
-14.9591573733 0.172503
-14.4605227987 0.162046
-13.9618879482 0.171527
-13.4632528218 0.178285
-12.9646174194 0.17931
-12.4659817412 0.189485
-11.9673457869 0.205465
-11.4687095566 0.218214
-10.9700730503 0.215233
-10.4714362678 0.211479
-9.97279920927 0.212222
-9.47416187454 0.220681
-8.97552426363 0.239203
-8.47688637649 0.247636
-7.97824821309 0.245898
-7.4796097734 0.247303
-6.98097105738 0.247804
-6.482332065 0.243264
-5.98369279623 0.234447
-5.48505325103 0.21678
-4.98641342937 0.217789
-4.48777333121 0.214495
-3.98913295653 0.17096
-3.49049230528 0.132718
-2.99185137744 0.0989302
-2.49321017297 0.0678937
-1.99456869183 0.0401386
-1.495926934 0.0235126
-0.997284899443 0.0186865
-0.498642588121 0.0068987
0 0
0.49864286495 0.00868072
0.997286006765 0.0173208
1.49592942548 0.0234089
1.99457312112 0.0286973
2.49321709373 0.0324626
2.99186134333 0.0309873
3.49050586997 0.0294527
3.98915067367 0.0549329
4.48779575447 0.13865
4.9864411124 0.259772
5.48508674749 0.387713
5.98373265979 0.529714
6.48237884931 0.617965
6.98102531611 0.667458
7.4796720602 0.708922
7.97831908162 0.710614
8.47696638041 0.712958
8.9756139566 0.706582
9.47426181022 0.693783
9.97290994131 0.709075
10.4715583499 0.725871
10.970207036 0.730458
11.4688559997 0.731081
11.967505241 0.735981
12.4661547599 0.731959
12.9648045565 0.731397
13.4634546308 0.732322
13.9621049828 0.730813
14.4607556126 0.713051
14.9594065201 0.697233
15.4580577056 0.692964
15.9567091688 0.692556
16.45536091 0.685819
16.9540129291 0.677207
17.4526652262 0.669895
17.9513178013 0.662753
18.4499706544 0.664984
18.9486237856 0.664744
19.4472771949 0.66548
19.9459308823 0.660016
20.4445848478 0.679194
20.9432390916 0.669821
21.4418936136 0.578469
21.9405484139 0.552649
22.4392034925 0.532356
22.9378588494 0.537956
23.4365144846 0.530978
23.9351703983 0.515753
24.4338265904 0.509206
24.932483061 0.510667
