-24.9959730617 0.340305
-24.4960572533 0.345073
-23.9961412958 0.344427
-23.4962251893 0.367166
-22.9963089337 0.469195
-22.496392529 0.579424
-21.9964759753 0.651961
-21.4965592725 0.695647
-20.9966424206 0.727636
-20.4967254196 0.738914
-19.9968082696 0.704614
-19.4968909705 0.691315
-18.9969735223 0.681201
-18.497055925 0.670871
-17.9971381786 0.67657
-17.4972202832 0.674103
-16.9973022386 0.654158
-16.497384045 0.591863
-15.9974657023 0.582417
-15.4975472104 0.654579
-14.9976285695 0.751098
-14.4977097794 0.83629
-13.9977908403 0.877164
-13.4978717521 0.89385
-12.9979525147 0.907247
-12.4980331282 0.786145
-11.9981135927 0.660548
-11.498193908 0.58658
-10.9982740742 0.576028
-10.4983540912 0.498067
-9.99843395919 0.353909
-9.49851367802 0.24843
-8.99859324773 0.159507
-8.49867266832 0.0704747
-7.99875193977 0
-7.4988310621 0.00462064
-6.99891003529 0.0274971
-6.49898885935 0.0397996
-5.99906753427 0.0530229
-5.49914606005 0.0879123
-4.9992244367 0.13556
-4.4993026642 0.160739
-3.99938074256 0.15206
-3.49945867177 0.164194
-2.99953645184 0.186739
-2.49961408275 0.226026
-1.99969156451 0.262094
-1.49976889712 0.283445
-0.999846080571 0.261455
-0.499923114866 0.297678
0 0.305657
0.499923264027 0.285716
0.999846677218 0.269784
1.49977023957 0.271505
1.9996939511 0.295686
2.49961781179 0.294051
2.99954182166 0.282763
3.4994659807 0.284093
3.99939028891 0.29078
4.4993147463 0.2993
4.99923935287 0.335804
5.49916410862 0.365487
5.99908901356 0.403073
6.49901406768 0.429289
6.99893927098 0.463744
7.49886462348 0.508225
7.99879012516 0.521276
8.49871577604 0.524858
8.99864157611 0.519033
9.49856752538 0.48405
9.99849362385 0.410349
10.4984198715 0.352394
10.9983462684 0.31037
11.4982728145 0.279225
11.9981995097 0.266703
12.4981263542 0.300486
12.9980533479 0.39894
13.4979804908 0.502159
13.9979077829 0.524146
14.4978352243 0.521357
14.9977628148 0.586491
15.4976905546 0.615731
15.9976184436 0.615846
16.4975464818 0.622263
16.9974746692 0.671435
17.4974030059 0.742495
17.9973314918 0.784251
18.4972601269 0.813782
18.9971889112 0.815331
19.4971178448 0.775108
19.9970469276 0.700178
20.4969761597 0.632354
20.996905541 0.565189
21.4968350715 0.542521
21.9967647513 0.518584
22.4966945803 0.523684
22.9966245586 0.523591
23.4965546861 0.522263
23.9964849629 0.535391
24.4964153889 0.536469
24.9963459641 0.517685
