-24.9335579986 0.940716
-24.4348935953 0.949837
-23.9362289167 0.954027
-23.4375639628 0.958897
-22.9388987336 0.966754
-22.4402332291 0.959918
-21.9415674491 0.944222
-21.4429013938 0.930699
-20.944235063 0.914913
-20.4455684567 0.914808
-19.9469015748 0.913513
-19.4482344175 0.913444
-18.9495669845 0.905114
-18.450899276 0.887316
-17.9522312917 0.872367
-17.4535630318 0.867168
-16.9548944962 0.864377
-16.4562256849 0.850769
-15.9575565977 0.839332
-15.4588872347 0.825161
-14.9602175959 0.803244
-14.4615476813 0.78773
-13.9628774906 0.775224
-13.4642070241 0.770083
-12.9655362816 0.758581
-12.466865263 0.743094
-11.9681939685 0.740254
-11.4695223978 0.7487
-10.970850551 0.72565
-10.4721784281 0.683149
-9.97350602904 0.633477
-9.47483335374 0.59304
-8.97616040221 0.587839
-8.4774871744 0.536469
-7.97881367028 0.492757
-7.48013988982 0.425503
-6.981465833 0.386545
-6.48279149976 0.381167
-5.98411689009 0.332565
-5.48544200395 0.290132
-4.98676684131 0.28297
-4.48809140213 0.29009
-3.98941568638 0.294365
-3.49073969403 0.299016
-2.99206342505 0.305624
-2.4933868794 0.297583
-1.99471005705 0.282092
-1.49603295796 0.277742
-0.997355582118 0.277987
-0.498677929475 0.280639
0 0.28449
0.498678206337 0.287274
0.997356689569 0.281804
1.49603544973 0.281186
1.99471448685 0.334988
2.49339380096 0.427913
2.99207339211 0.489043
3.4907532603 0.51975
3.98943340559 0.555924
4.48811382801 0.58152
4.98679452758 0.597076
5.48547550434 0.656007
5.98415675832 0.725582
6.48283828955 0.737372
6.98152009807 0.762112
7.48020218391 0.82311
7.97888454711 0.904023
8.47756718768 1.00339
8.97625010568 1.08043
9.47493330112 1.14301
9.97361677404 1.13716
10.4723005245 1.09795
10.9709845525 1.05693
11.469668858 1.01232
11.9683534412 0.966967
12.467038302 0.927561
12.9657234405 0.919386
13.4644088567 1.01321
13.9630945507 1.09826
14.4617805224 1.15393
14.960466772 1.15433
15.4591532993 1.06085
15.9578401046 0.922044
16.4565271877 0.769655
16.9552145488 0.58443
17.4539021879 0.368037
17.9525901049 0.239205
18.4512783 0.157676
18.9499667732 0.142037
19.4486555244 0.125203
19.9473445538 0.123752
20.4460338613 0.130894
20.9447234471 0.125986
21.4434133111 0.0985781
21.9421034533 0.104938
22.4407938738 0.108118
22.9394845727 0.0651037
23.4381755499 0.0249997
23.9368668055 0.00670198
24.4355583395 0
24.934250152 0.00104564
