-24.9327265611 1.60777
-24.4340786673 1.61219
-23.935430503 1.62945
-23.4367820684 1.62202
-22.9381333633 1.60097
-22.4394843877 1.5729
-21.9408351416 1.52395
-21.4421856249 1.44073
-20.9435358377 1.3798
-20.4448857799 1.32907
-19.9462354514 1.26101
-19.4475848522 1.16139
-18.9489339824 1.02733
-18.4502828417 0.965927
-17.9516314303 0.861694
-17.4529797481 0.76214
-16.9543277951 0.736394
-16.4556755711 0.73341
-15.9570230763 0.740851
-15.4583703104 0.744413
-14.9597172737 0.72114
-14.4610639659 0.678705
-13.962410387 0.548493
-13.4637565371 0.423446
-12.9651024161 0.39683
-12.4664480239 0.385321
-11.9677933605 0.350581
-11.469138426 0.321744
-10.9704832202 0.343198
-10.4718277431 0.343256
-9.97317199466 0.314496
-9.47451597491 0.292507
-8.97585968378 0.271444
-8.47720312124 0.274142
-7.97854628726 0.285711
-7.47988918179 0.285266
-6.98123180482 0.260541
-6.4825741563 0.24038
-5.98391623621 0.231768
-5.4852580445 0.231002
-4.98659958116 0.211174
-4.48794084613 0.195536
-3.9892818394 0.236363
-3.49062256092 0.284211
-2.99196301067 0.255223
-2.49330318861 0.211669
-1.9946430947 0.18282
-1.49598272892 0.13503
-0.997322091233 0.0627319
-0.498661181604 0
0 0.00204246
0.498661453612 0.0460887
0.997323179263 0.0388056
1.49598517699 0.0240614
1.99464744682 0.0233183
2.49330998879 0.0445717
2.99197280294 0.103953
3.49063588929 0.170818
3.98929924788 0.232832
4.48796287874 0.313524
4.9866267819 0.418442
5.4852909574 0.515669
5.98395540528 0.563322
6.48262012555 0.561466
6.98128511827 0.621081
7.47995038345 0.72925
7.97861592114 0.843605
8.47728173136 0.958578
8.97594781415 0.944111
9.47461416954 0.856835
9.97328079757 0.705264
10.4719476983 0.545977
10.9706148717 0.420171
11.4692823178 0.340216
11.9679500367 0.297004
12.4666180284 0.286331
12.9652862929 0.27992
13.4639548303 0.312849
13.9626236406 0.350969
14.4612927238 0.368908
14.95996208 0.354596
15.4586317091 0.322726
15.9573016113 0.356896
16.4559717866 0.402314
16.954642235 0.387767
17.4533129565 0.409435
17.9519839511 0.539926
18.450655219 0.68707
18.94932676 0.78388
19.4479985744 0.894384
19.946670662 1.02415
20.4453430229 1.06369
20.9440156572 1.04355
21.4426885649 1.01047
21.941361746 0.863876
22.4400352006 0.789894
22.9387089287 0.813145
23.4373829302 0.795128
23.9360572054 0.770408
24.4347317541 0.742124
24.9334065764 0.696517
