-24.9919352584 0.701367
-24.4921004561 0.720442
-23.9922654946 0.558291
-23.4924303739 0.40522
-22.9925950939 0.338313
-22.4927596547 0.298054
-21.9929240562 0.220918
-21.4930882984 0.164396
-20.9932523814 0.146418
-20.4934163052 0.15912
-19.9935800696 0.161517
-19.4937436748 0.180178
-18.9939071207 0.193767
-18.4940704073 0.201964
-17.9942335347 0.210096
-17.4943965027 0.210118
-16.9945593115 0.199958
-16.4947219609 0.193523
-15.9948844511 0.202591
-15.4950467819 0.193404
-14.9952089535 0.176125
-14.4953709657 0.167826
-13.9955328186 0.158807
-13.4956945122 0.15011
-12.9958560464 0.149307
-12.4960174213 0.148615
-11.9961786369 0.144321
-11.4963396932 0.141662
-10.9965005901 0.185799
-10.4966613276 0.223269
-9.99682190583 0.215768
-9.49698232468 0.230831
-8.99714258417 0.247596
-8.4973026843 0.259013
-7.99746262506 0.285691
-7.49762240644 0.332595
-6.99778202846 0.373357
-6.49794149109 0.380298
-5.99810079434 0.364982
-5.4982599382 0.33311
-4.99841892268 0.314477
-4.49857774775 0.239074
-3.99873641343 0.153647
-3.4988949197 0.0970985
-2.99905326657 0.0517928
-2.49921145403 0.0305289
-1.99936948207 0.0205868
-1.49952735069 0.0157924
-0.999685059886 0.00867132
-0.499842609659 0.00406571
0 0.00312612
0.499842769094 0.000272104
0.999685697627 0
1.4995287856 0.00402449
1.99937203302 0.0125818
2.49921543989 0.0369079
2.99905900622 0.117541
3.49890273201 0.222313
3.99874661725 0.3003
4.49859066197 0.365142
4.99843486615 0.425511
5.49827922981 0.47058
5.99812375294 0.466876
6.49796843556 0.469079
6.99781327766 0.476398
7.49765827926 0.501527
7.99750344034 0.529187
8.49734876092 0.531323
8.99719424101 0.559615
9.4970398806 0.572966
9.9968856797 0.577312
10.4967316383 0.583285
10.9965777564 0.594568
11.4964240341 0.613543
11.9962704713 0.613849
12.496117068 0.601797
12.9959638242 0.580894
13.49581074 0.555832
13.9956578153 0.536023
14.4955050501 0.52062
14.9953524445 0.508461
15.4951999985 0.509
15.995047712 0.511067
16.494895585 0.511266
16.9947436177 0.50917
17.4945918099 0.507383
17.9944401616 0.504839
18.494288673 0.507109
18.9941373439 0.507247
19.4939861744 0.501587
19.9938351645 0.469447
20.4936843141 0.429669
20.9935336234 0.431062
21.4933830923 0.436721
21.9932327207 0.452578
22.4930825088 0.454367
22.9929324565 0.442884
23.4927825637 0.454199
23.9926328306 0.500882
24.4924832572 0.546603
24.9923338433 0.572731
