-24.950468206 0.989954
-24.4514647964 1.03323
-23.9524611442 1.0958
-23.4534572493 1.15464
-22.9544531117 1.19297
-22.4554487314 1.20022
-21.9564441083 1.21661
-21.4574392425 1.21103
-20.9584341339 1.18459
-20.4594287824 1.10301
-19.9604231881 1.06547
-19.4614173509 1.09292
-18.9624112708 1.10153
-18.4634049478 1.03675
-17.9643983819 0.995743
-17.465391573 0.988987
-16.9663845211 0.984578
-16.4673772262 0.970523
-15.9683696882 0.954287
-15.4693619072 0.948804
-14.970353883 0.939821
-14.4713456158 0.901469
-13.9723371054 0.854317
-13.4733283519 0.826652
-12.9743193551 0.774043
-12.4753101152 0.694039
-11.976300632 0.587905
-11.4772909055 0.509055
-10.9782809358 0.480717
-10.4792707227 0.532526
-9.98026026634 0.537543
-9.48124956658 0.573219
-8.98223862344 0.652077
-8.48322743689 0.672844
-7.9842160069 0.576132
-7.48520433345 0.481796
-6.98619241652 0.397836
-6.48718025608 0.369137
-5.98816785211 0.337346
-5.48915520458 0.300699
-4.99014231347 0.264009
-4.49112917875 0.24436
-3.9921158004 0.214519
-3.4931021784 0.181218
-2.99408831272 0.181274
-2.49507420333 0.224314
-1.99605985022 0.249738
-1.49704525335 0.254872
-0.998030412713 0.236446
-0.499015328269 0.161523
0 0.111056
0.499015572118 0.106402
0.998031388112 0.117184
1.497047448 0.101193
1.99606375182 0.0328425
2.49508029958 0.00411964
2.99409709131 0
3.49311412704 0.0122441
3.99213140679 0.0739431
4.49114893058 0.159677
4.99016669844 0.275229
5.4891847104 0.413433
5.98820296647 0.549745
6.48722146669 0.614542
6.98624021106 0.638676
7.48525919963 0.654018
7.98427843242 0.665642
8.48329790944 0.729598
8.98231763073 0.857312
9.4813375963 1.05356
9.98035780618 1.31125
10.4793782604 1.49173
10.978398959 1.53083
11.4774199019 1.51986
11.9764410893 1.5037
12.4754625211 1.45912
12.9744841974 1.2403
13.4735061181 1.03418
13.9725282834 0.934981
14.4715506931 0.972005
14.9705733475 1.02138
15.4695962464 1.04022
15.9686193899 0.966546
16.467642778 0.868875
16.9666664108 0.848161
17.4656902883 0.866606
17.9647144104 0.909662
18.4637387773 0.975136
18.9627633889 1.08489
19.4617882453 1.22008
19.9608133465 1.35244
20.4598386925 1.4905
20.9588642834 1.61569
21.4578901191 1.60839
21.9569161997 1.52095
22.4559425252 1.42617
22.9549690957 1.33256
23.4539959111 1.2662
23.9530229715 1.19393
24.452050277 1.06087
24.9510778274 0.872881
