-24.9317980438 0.792748
-24.4331688392 0.753689
-23.9345393593 0.72269
-23.4359096042 0.707484
-22.9372795738 0.694421
-22.4386492681 0.675884
-21.9400186871 0.648712
-21.4413878306 0.636607
-20.9427566987 0.638037
-20.4441252913 0.684469
-19.9454936085 0.745073
-19.4468616501 0.767948
-18.9482294161 0.774319
-18.4495969066 0.730019
-17.9509641214 0.706481
-17.4523310605 0.711825
-16.953697724 0.718286
-16.4550641117 0.66408
-15.9564302237 0.644214
-15.4577960598 0.646331
-14.9591616201 0.634917
-14.4605269046 0.610311
-13.9618919131 0.604892
-13.4632566457 0.606543
-12.9646211024 0.593068
-12.465985283 0.577142
-11.9673491877 0.546197
-11.4687128162 0.49069
-10.9700761686 0.437024
-10.4714392449 0.401585
-9.97280204506 0.356423
-9.47416456898 0.296763
-8.97552681667 0.245031
-8.47688878808 0.193709
-7.97825048319 0.161854
-7.47961190196 0.137425
-6.98097304436 0.0855965
-6.48233391035 0.0486244
-5.9836944999 0.0275986
-5.48505481298 0.0256176
-4.98641484955 0.0278205
-4.48777460958 0.0236471
-3.98913409304 0.0148964
-3.49049329989 0.00358223
-2.9918522301 0
-2.49321088363 0.00699782
-1.99456926045 0.00664076
-1.49592736054 0.000731214
-0.997285183846 0.00942078
-0.498642730344 0.0245112
0 0.0338441
0.49864300722 0.0272805
0.997286291349 0.0226099
1.49592985242 0.0234336
1.99457369047 0.0316989
2.49321780553 0.040812
2.99186219763 0.0516292
3.49050686681 0.061907
3.9891518131 0.0687443
4.48779703654 0.0766332
4.98644253715 0.0861044
5.48508831497 0.095089
5.98373437004 0.0895466
6.48238070238 0.0847616
6.98102731204 0.0929241
7.47967419904 0.0947049
7.97832136342 0.107882
8.4769688052 0.15186
8.97561652444 0.204755
9.47426452115 0.271939
9.97291279538 0.312497
10.4715613471 0.322042
10.9702101765 0.357344
11.4688592835 0.391026
11.9675086681 0.429033
12.4661583303 0.458346
12.9648082703 0.463861
13.4634584881 0.470055
13.9621089836 0.456382
14.4607597569 0.450869
14.9594108081 0.448301
15.4580621371 0.45668
15.9567137441 0.473348
16.455365629 0.501702
16.9540177919 0.535471
17.4526702328 0.569333
17.9513229518 0.556354
18.4499759488 0.520396
18.9486292239 0.496875
19.4472827772 0.507833
19.9459366087 0.509761
20.4445907183 0.485557
20.9432451062 0.438841
21.4418997724 0.372302
21.9405547169 0.321839
22.4392099398 0.284557
22.937865441 0.243828
23.4365212206 0.21636
23.9351772787 0.194735
24.4338336153 0.163639
24.9324902303 0.129495
