-24.9335196793 0.425928
-24.4348560364 0.431454
-23.9361921184 0.490304
-23.4375279254 0.54705
-22.9388634573 0.564664
-22.4401987142 0.562807
-21.9415336958 0.522991
-21.4428684023 0.491741
-20.9442028336 0.477036
-20.4455369897 0.448374
-19.9468708704 0.423162
-19.4482044759 0.452253
-18.949537806 0.423972
-18.4508708608 0.346767
-17.9522036401 0.335227
-17.4535361441 0.344872
-16.9548683725 0.362287
-16.4562003254 0.386866
-15.9575320028 0.392307
-15.4588634047 0.392717
-14.9601945309 0.383001
-14.4615253815 0.380009
-13.9628559564 0.378647
-13.4641862557 0.368628
-12.9655162792 0.363128
-12.4668460269 0.3648
-11.9681754988 0.364881
-11.4695046949 0.362987
-10.9708336151 0.33657
-10.4721622595 0.310802
-9.97349062789 0.305455
-9.47481872032 0.317171
-8.97614653677 0.289236
-8.47747407718 0.269035
-7.97880134153 0.241115
-7.48012832979 0.213686
-6.98145504192 0.177986
-6.48278147789 0.120622
-5.98410763766 0.0560236
-5.48543352121 0.0518759
-4.98675912851 0.0540993
-4.48808445951 0.0563575
-3.98940951418 0.029831
-3.4907342925 0
-2.99205879443 0.00988753
-2.49338301994 0.0428623
-1.99470696899 0.091328
-1.49603064156 0.136377
-0.997354037602 0.189645
-0.498677157094 0.20182
0 0.205071
0.498677433712 0.203173
0.997355144075 0.192514
1.49603313112 0.185775
1.99471139489 0.206535
2.4933899354 0.250605
2.99206875269 0.279096
3.4907478468 0.308451
3.98942721776 0.286287
4.48810686559 0.261397
4.98678679034 0.202021
5.48546699203 0.156765
5.9841474707 0.120533
6.48282822638 0.122268
6.9815092591 0.218343
7.4801905689 0.309112
7.9788721558 0.346963
8.47755401985 0.340153
8.97623616106 0.387218
9.47491857949 0.497728
9.97360127515 0.567758
10.4722842481 0.646785
10.9709674983 0.722319
11.4696510259 0.735098
11.9683348308 0.793775
12.4670189132 0.874985
12.9657032729 0.969491
13.4643879102 0.995508
13.9630728249 1.016
14.4617580172 1.03702
14.960443487 1.04876
15.4591292344 1.05486
15.9578152595 1.08
16.4565015622 1.13887
16.9551881426 1.20578
17.4538750007 1.28631
17.9525621366 1.39815
18.4512495503 1.48889
18.9499372418 1.42698
19.4486252112 1.34171
19.9473134584 1.29173
20.4460019836 1.22646
20.9446907867 1.16787
21.4433798678 1.11889
21.9420692269 1.07026
22.4407588641 0.992726
22.9394487793 0.891005
23.4381389727 0.780682
23.9368294442 0.737662
24.4355201939 0.731427
24.9342112218 0.725604
