-24.9646481563 1.32961
-24.4653605414 1.28839
-23.9660727084 1.24272
-23.4667846574 1.19169
-22.9674963884 1.15331
-22.4682079013 1.08138
-21.9689191961 1.06626
-21.4696302729 1.05457
-20.9703411315 1.04476
-20.4710517719 1.03103
-19.9717621942 1.02192
-19.4724723984 1.00783
-18.9731823843 1.00354
-18.4738921521 0.978132
-17.9746017016 0.951335
-17.4753110329 0.942326
-16.9760201459 0.909581
-16.4767290407 0.830205
-15.9774377171 0.765235
-15.4781461753 0.729435
-14.9788544151 0.695828
-14.4795624366 0.651458
-13.9802702397 0.645863
-13.4809778244 0.634886
-12.9816851908 0.628084
-12.4823923387 0.619247
-11.9830992681 0.614568
-11.4838059792 0.608413
-10.9845124717 0.606106
-10.4852187458 0.607199
-9.98592480136 0.597271
-9.48663063841 0.574587
-8.98733625692 0.535616
-8.48804165687 0.487872
-7.98874683824 0.459991
-7.48945180103 0.434016
-6.99015654521 0.402686
-6.49086107076 0.391465
-5.99156537767 0.368136
-5.49226946591 0.328158
-4.99297333548 0.300894
-4.49367698635 0.293324
-3.99438041851 0.297093
-3.49508363193 0.226195
-2.99578662661 0.127159
-2.49648940253 0.0469747
-1.99719195966 0.0389422
-1.49789429799 0.0430824
-0.998596417499 0.0399988
-0.499298318176 0.0314261
0 0.0267527
0.499298537045 0.0155968
0.998597292979 0.0197131
1.49789626782 0.018958
1.99719546158 0.0155655
2.49649487428 0.0147215
2.99579450593 0.0146552
3.49509435656 0.0104369
3.99439442618 0.0126702
4.49369471481 0.0105726
4.99299522247 0
5.49229594917 0.0260565
5.99159689493 0.0680189
6.49089805977 0.120742
6.99019944371 0.195632
7.48950104675 0.299413
7.98880286893 0.398328
8.48810491026 0.463891
8.98740717074 0.507298
9.48670965042 0.562282
9.98601234929 0.623556
10.4853152674 0.71038
10.9846184047 0.794757
11.4839217613 0.825793
11.9832253371 0.859291
12.4825291322 0.910018
12.9818331467 0.970189
13.4811373804 1.01383
13.9804418335 1.0319
14.4797465059 1.00045
14.9790513977 1.007
15.4783565089 1.02323
15.9776618395 1.05701
16.4769673896 1.10385
16.976273159 1.13473
17.475579148 1.14425
17.9748853564 1.1461
18.4741917843 1.14721
18.9734984317 1.1378
19.4728052986 1.15456
19.9721123851 1.19375
20.4714196911 1.24085
20.9707272167 1.2208
21.4700349619 1.24288
21.9693429267 1.24594
22.4686511112 1.26985
22.9679595153 1.25806
23.467268139 1.2772
23.9665769825 1.29954
24.4658860456 1.26686
24.9651953285 1.25129
