-24.9335126615 0.887293
-24.4348491578 0.834595
-23.9361853792 0.790122
-23.4375213255 0.806103
-22.9388569968 0.84485
-22.4401923931 0.806494
-21.9415275142 0.774136
-21.4428623602 0.731683
-20.9441969311 0.671854
-20.4455312268 0.635156
-19.9468652472 0.613232
-19.4481989924 0.625243
-18.9495324622 0.623427
-18.4508656568 0.619562
-17.952198576 0.614164
-17.4535312198 0.599089
-16.9548635882 0.575619
-16.4561956811 0.560462
-15.9575274985 0.548735
-15.4588590404 0.528745
-14.9601903068 0.504554
-14.4615212975 0.486697
-13.9628520126 0.475664
-13.4641824521 0.462366
-12.9655126159 0.440834
-12.466842504 0.449181
-11.9681721163 0.496867
-11.4695014528 0.519284
-10.9708305135 0.520564
-10.4721592983 0.504951
-9.9734878073 0.486868
-9.47481604034 0.45283
-8.97614399743 0.424765
-8.47747167854 0.409467
-7.97879908363 0.404737
-7.48012621267 0.363208
-6.98145306562 0.318967
-6.48277964246 0.279165
-5.98410594316 0.216821
-5.48543196767 0.142671
-4.98675771597 0.113231
-4.48808318802 0.0712868
-3.98940838379 0.0290298
-3.49073330326 0.00801065
-2.99205794637 0.00138437
-2.49338231311 0.00624623
-1.99470640344 0.0235792
-1.49603021733 0.00745454
-0.997353754737 0
-0.498677015639 0.0153128
0 0.0595538
0.498677292213 0.0918026
0.997354861031 0.130241
1.49603270649 0.166977
1.99471082862 0.201887
2.49338922745 0.198516
2.99206790302 0.171197
3.49074685536 0.144965
3.9894260845 0.130523
4.48810559048 0.132002
4.98678537332 0.140056
5.48546543307 0.143349
5.98414576975 0.149872
6.48282638339 0.157435
6.98150727403 0.184941
7.4801884417 0.225856
7.97886988643 0.283375
8.47755160826 0.331845
8.97623360722 0.381793
9.47491588333 0.479026
9.97359843665 0.613031
10.4722812672 0.688944
10.970964375 0.707402
11.4696477601 0.721785
11.9683314225 0.75416
12.4670153622 0.772644
12.9656995794 0.800354
13.464384074 0.897673
13.963068846 0.937387
14.4617538955 0.971869
14.9604392225 0.99594
15.4591248271 1.01438
15.9578107093 1.01411
16.4564968691 1.00838
16.9551833065 1.04161
17.4538700216 1.14803
17.9525570144 1.29775
18.451244285 1.45288
18.9499318334 1.58011
19.4486196595 1.5557
19.9473077635 1.49386
20.4459961454 1.46379
20.9446848052 1.42184
21.4433737429 1.41091
21.9420629586 1.40011
22.4407524523 1.38418
22.939442224 1.38767
23.4381322738 1.37939
23.9368226018 1.33612
24.4355132078 1.24681
24.934204092 1.13637
