-24.9960183553 0.0205928
-24.4961016449 0.162823
-23.9961847852 0.242628
-23.4962677763 0.229711
-22.9963506182 0.24513
-22.4964333109 0.239592
-21.9965158543 0.213561
-21.4965982485 0.197243
-20.9966804935 0.193163
-20.4967625893 0.192041
-19.9968445358 0.191494
-19.496926333 0.204108
-18.9970079811 0.215974
-18.4970894799 0.225137
-17.9971708294 0.222981
-17.4972520297 0.253914
-16.9973330808 0.363642
-16.4974139826 0.468744
-15.9974947352 0.499945
-15.4975753385 0.492679
-14.9976557925 0.493936
-14.4977360973 0.541907
-13.9978162528 0.59298
-13.4978962591 0.612042
-12.9979761161 0.595366
-12.4980558238 0.573107
-11.9981353823 0.550593
-11.4982147915 0.526526
-10.9982940514 0.478897
-10.4983731621 0.403071
-9.99845212348 0.364438
-9.49853093558 0.34461
-8.9986095984 0.306752
-8.49868811194 0.247906
-7.99876647619 0.164448
-7.49884469116 0.0490767
-6.99892275683 0.013722
-6.49900067322 0
-5.99907844032 0.0055732
-5.49915605812 0.0272933
-4.99923352663 0.0511488
-4.49931084584 0.0776112
-3.99938801575 0.107824
-3.49946503636 0.147647
-2.99954190766 0.180951
-2.49961862966 0.214291
-1.99969520235 0.241823
-1.49977162573 0.259476
-0.999847899803 0.285424
-0.49992402456 0.297991
0 0.308027
0.499924173877 0.326799
0.999848497074 0.343497
1.49977296959 0.382872
1.99969759143 0.440182
2.4996223626 0.488115
2.99954728309 0.563837
3.49947235291 0.65528
3.99939757206 0.737032
4.49932294055 0.77873
4.99924845837 0.809185
5.49917412552 0.828251
5.99909994201 0.848919
6.49902590785 0.908194
6.99895202302 0.968248
7.49887828754 1.02616
7.99880470141 1.04612
8.49873126462 0.971536
8.99865797719 0.941109
9.4985848391 0.930685
9.99851185037 0.960594
10.498439011 1.00259
10.998366321 1.01577
11.4982937803 0.97908
11.998221389 0.938538
12.4981491471 0.92797
12.9980770545 0.95525
13.4980051113 0.979883
13.9979333174 1.04108
14.497861673 1.06685
14.9977901779 1.05583
15.4977188322 1.04876
15.9976476358 1.01359
16.4975765888 0.98785
16.9975056912 0.960727
17.497434943 0.921962
17.9973643442 0.859495
18.4972938948 0.778458
18.9972235947 0.685915
19.497153444 0.588214
19.9970834427 0.462734
20.4970135909 0.346352
20.9969438884 0.273904
21.4968743353 0.230506
21.9968049315 0.206924
22.4967356772 0.288055
22.9966665723 0.326939
23.4965976168 0.374289
23.9965288107 0.438266
24.496460154 0.478206
24.9963916467 0.43282
