-24.964746821 0.73781
-24.4654572453 0.759124
-23.966167451 0.804798
-23.4668774382 0.860399
-22.9675872069 0.902445
-22.4682967569 0.878796
-21.9690060884 0.867485
-21.4697152013 0.878677
-20.9704240955 0.896068
-20.4711327711 0.907185
-19.971841228 0.907041
-19.4725494663 0.88634
-18.9732574858 0.868629
-18.4739652866 0.915511
-17.9746728687 0.959192
-17.4753802321 0.955474
-16.9760873766 0.913674
-16.4767943024 0.885921
-15.9775010094 0.81442
-15.4782074976 0.779353
-14.9789137669 0.775268
-14.4796198174 0.765526
-13.980325649 0.743012
-13.4810312617 0.724684
-12.9817366555 0.711035
-12.4824418303 0.679052
-11.9831467863 0.641061
-11.4838515232 0.557403
-10.9845560412 0.466972
-10.4852603402 0.396176
-9.98596442016 0.350863
-9.48666828111 0.315677
-8.987371923 0.299023
-8.48807534583 0.258251
-7.98877854958 0.236633
-7.48948153422 0.21402
-6.99018429975 0.19974
-6.49088684614 0.187073
-5.99158917338 0.170062
-5.49229128145 0.154378
-4.99299317033 0.140892
-4.49369484001 0.117867
-3.99439629046 0.100801
-3.49509752167 0.0708385
-2.99579853363 0.0422624
-2.49649932631 0.059462
-1.9971998997 0.0633859
-1.49790025378 0.0546025
-0.998600388539 0.0599206
-0.49930030395 0.03386
0 0.010771
0.499300523329 0
0.998601266054 0.00174467
1.49790222819 0.000551744
1.99720340976 0.00410022
2.49650481078 0.00506021
2.99580643126 0.014683
3.49510827122 0.0298831
3.99441033069 0.0398105
4.49371260967 0.0498731
4.99301510818 0.0617765
5.49231782625 0.0717729
5.99162076388 0.0777253
6.4909239211 0.0894194
6.99022729793 0.123913
7.48953089438 0.185893
7.98883471046 0.251723
8.4881387462 0.327504
8.98744300161 0.390927
9.48674747671 0.431864
9.98605217152 0.477767
10.485357086 0.524332
10.9846622203 0.566271
11.4839675744 0.607183
11.9832731482 0.651415
12.4825789418 0.706706
12.9818849552 0.743582
13.4811911884 0.750678
13.9804976415 0.750731
14.4798043144 0.752707
14.9791112072 0.731498
15.47841832 0.703992
15.9777256526 0.695647
16.4770332052 0.693387
16.9763409777 0.692011
17.4756489701 0.694477
17.9749571826 0.703841
18.4742656151 0.731476
18.9735742675 0.808373
19.47288314 0.925858
19.9721922326 1.06175
20.4715015452 1.11734
20.9708110779 1.15861
21.4701208307 1.20376
21.9694308036 1.24796
22.4687409967 1.28518
22.9680514099 1.31411
23.4673620433 1.41414
23.9666728969 1.42427
24.4659839706 1.33749
24.9652952646 1.33417
