-24.9330291383 1.03396
-24.4343752459 1.06519
-23.9357210809 1.09855
-23.4370666433 1.12351
-22.9384119331 1.1409
-22.4397569503 1.15005
-21.9411016948 1.16648
-21.4424461666 1.24598
-20.9437903656 1.34206
-20.4451342919 1.35069
-19.9464779454 1.34153
-19.447821326 1.3064
-18.9491644337 1.29757
-18.4505072685 1.28676
-17.9518498304 1.28109
-17.4531921194 1.27586
-16.9545341353 1.25345
-16.4558758781 1.21009
-15.9572173479 1.1574
-15.4585585446 1.10617
-14.9598994682 1.05835
-14.4612401185 1.01361
-13.9625804957 0.979276
-13.4639205996 0.944471
-12.9652604303 0.902421
-12.4665999876 0.857498
-11.9679392716 0.844854
-11.4692782822 0.825744
-10.9706170195 0.776409
-10.4719554832 0.727241
-9.97329367356 0.705151
-9.47463159038 0.707801
-8.97596923365 0.725691
-8.47730660335 0.731115
-7.97864369945 0.713395
-7.47998052191 0.71243
-6.98131707071 0.697817
-6.4826533458 0.649785
-5.98398934715 0.590055
-5.48532507473 0.528756
-4.98666052852 0.469077
-4.48799570847 0.410012
-3.98933061455 0.420444
-3.49066524673 0.452549
-2.99199960497 0.482501
-2.49333368925 0.498582
-1.99466749953 0.492084
-1.49600103578 0.461043
-0.997334297963 0.490109
-0.498667286047 0.4826
0 0.417174
0.498667560211 0.328543
0.99733539462 0.245266
1.49600350326 0.15829
1.99467188616 0.0832993
2.49334054336 0.0288316
2.99200947488 0.0154694
3.49067868077 0.00824782
3.98934816105 0.00222681
4.48801791576 0
4.98668794493 0.00426438
5.4853582486 0.00786038
5.98402882678 0.0103055
6.48269967953 0.016372
6.98137080687 0.0268115
7.48004220883 0.0184565
7.97871388545 0.0112528
8.47738583676 0.0212792
8.97605806279 0.0382714
9.47473056358 0.0527978
9.97340333916 0.0560887
10.4720763896 0.0503476
10.9707497148 0.061468
11.4694233149 0.0761111
11.96809719 0.0565669
12.46677134 0.0370913
12.965445765 0.055449
13.464120465 0.0741348
13.9627954401 0.0934261
14.4614706902 0.139118
14.9601462155 0.189274
15.4588220159 0.250175
15.9574980915 0.29215
16.4561744423 0.33556
16.9548510683 0.352042
17.4535279697 0.364377
17.9522051463 0.3787
18.4508825983 0.403064
18.9495603257 0.445349
19.4482383284 0.485258
19.9469166067 0.517037
20.4455951604 0.568052
20.9442739896 0.641828
21.4429530943 0.75839
21.9416324746 0.881998
22.4403121305 0.92723
22.9389920621 0.908664
23.4376722693 0.953371
23.9363527523 0.976996
24.4350335109 0.968977
24.9337145454 0.978541
