-24.9335510666 0.814002
-24.4348868009 0.793364
-23.9362222599 0.796804
-23.4375574436 0.798515
-22.9388923521 0.794668
-22.4402269853 0.764651
-21.9415613431 0.745728
-21.4428954256 0.727299
-20.9442292326 0.714698
-20.4455627643 0.719115
-19.9468960204 0.736257
-19.448229001 0.719703
-18.9495617061 0.703959
-18.4508941356 0.720766
-17.9522262895 0.73463
-17.4535581678 0.723642
-16.9548897704 0.704035
-16.4562210973 0.683575
-15.9575521485 0.664568
-15.4588829239 0.658457
-14.9602134235 0.661192
-14.4615436472 0.670425
-13.9628735951 0.691308
-13.4642032671 0.726572
-12.9655326631 0.739261
-12.4668617832 0.738423
-11.9681906273 0.710756
-11.4695191953 0.716985
-10.9708474873 0.746234
-10.4721755032 0.742012
-9.97350324296 0.723433
-9.47483070655 0.718938
-8.97615789394 0.708727
-8.47748480511 0.70591
-7.97881144001 0.701569
-7.48013779861 0.683037
-6.98146388089 0.590401
-6.4827896868 0.508545
-5.98411521633 0.475459
-5.48544046942 0.381901
-4.98676544606 0.289322
-4.48809014621 0.26148
-3.98941456983 0.255144
-3.49073871689 0.25774
-2.99206258737 0.258017
-2.49338618122 0.25917
-1.99470949842 0.269953
-1.49603253893 0.280473
-0.997355302715 0.273875
-0.498677789751 0.259078
0 0.250524
0.498678066569 0.24984
0.997356409989 0.274753
1.49603503029 0.306159
1.99471392751 0.327132
2.49339310168 0.342956
2.99207255283 0.367249
3.490752281 0.407313
3.98943228621 0.46122
4.48811256851 0.481999
4.98679312791 0.476626
5.48547396446 0.498463
5.98415507819 0.512697
6.48283646912 0.515944
6.9815181373 0.523758
7.48020008276 0.533328
7.97888230552 0.551087
8.47756480562 0.577253
8.9762475831 0.62845
9.47493063798 0.693897
9.9736139703 0.755383
10.4722975801 0.806465
10.9709814674 0.838536
11.4696656322 0.857623
11.9683500746 0.864554
12.4670347946 0.873494
12.9657197922 0.898217
13.4644050675 0.937276
13.9630906205 0.973543
14.4617764512 0.962956
14.9604625597 0.921125
15.459148946 0.853256
15.9578356101 0.769464
16.4565225521 0.662409
16.9552097719 0.540639
17.4538972697 0.435737
17.9525850455 0.36991
18.4512730992 0.331885
18.9499614309 0.302093
19.4486500407 0.315866
19.9473389286 0.310053
20.4460280947 0.279791
20.9447175388 0.214482
21.4434072612 0.130399
21.9420972618 0.0594336
22.4407875406 0.00872429
22.9394780977 0.00208881
23.4381689331 0.00162156
23.9368600468 0
24.435551439 0.0105589
24.9342431095 0.0220191
