-24.9330139028 0.556003
-24.4343603126 0.580013
-23.93570645 0.62643
-23.437052315 0.657594
-22.9383979074 0.685364
-22.4397432272 0.693437
-21.9410882745 0.70516
-21.4424330492 0.723381
-20.9437775512 0.757946
-20.4451217806 0.789915
-19.9464657372 0.819127
-19.4478094211 0.835477
-18.9491528323 0.844405
-18.4504959706 0.837392
-17.9518388361 0.829825
-17.4531814286 0.807134
-16.9545237483 0.825105
-16.4558657951 0.832846
-15.9572075688 0.750115
-15.4585490696 0.661838
-14.9598902973 0.640128
-14.461231252 0.610483
-13.9625719335 0.578369
-13.4639123419 0.559635
-12.9652524771 0.559218
-12.4665923391 0.558637
-11.9679319279 0.558392
-11.4692712433 0.557049
-10.9706102855 0.558087
-10.4719490544 0.554939
-9.97328754984 0.552961
-9.47462577191 0.555043
-8.97596372053 0.563628
-8.47730139568 0.562146
-7.97863879733 0.548605
-7.47997592544 0.539138
-6.98131277997 0.543363
-6.4826493609 0.525098
-5.9839856682 0.485158
-5.48532170182 0.473959
-4.98665746174 0.506549
-4.48799294793 0.516863
-3.98932816034 0.515421
-3.49066309895 0.474914
-2.99199776373 0.45447
-2.49333215464 0.435712
-1.99466627165 0.389237
-1.49600011472 0.326906
-0.997333683823 0.254653
-0.498666978928 0.158951
0 0.0915236
0.498667252995 0.139209
0.997334780087 0.113395
1.49600258131 0.0631776
1.9946706567 0.0154074
2.49333900629 0.00523552
2.99200763011 0
3.49067652819 0.00279946
3.98934570057 0.018694
4.48801514727 0.0545402
4.98668486834 0.123354
5.4853548638 0.214835
5.9840251337 0.262333
6.48269567805 0.307981
6.98136649689 0.363781
7.48003759027 0.419837
7.9787089582 0.473345
8.47738060072 0.505143
8.97605251786 0.515814
9.47472470967 0.529671
9.97339717616 0.552005
10.4720699174 0.587888
10.9707429334 0.613872
11.4694162241 0.609081
11.9680897897 0.536837
12.4667636301 0.461844
12.9654377455 0.434444
13.4641121357 0.417283
13.9627868009 0.404713
14.4614617411 0.398367
14.9601369563 0.397319
15.4588124465 0.408462
15.9574882119 0.426697
16.4561642523 0.432571
16.9548405679 0.42288
17.4535171587 0.419681
17.9521940247 0.510231
18.4508711659 0.628193
18.9495485825 0.812156
19.4482262743 0.984897
19.9469042415 1.03508
20.445582484 1.01258
20.944261002 0.957374
21.4429397954 0.892143
21.9416188643 0.816573
22.4402982087 0.719732
22.9389778286 0.57072
23.4376577241 0.433363
23.9363378952 0.343577
24.435018342 0.34822
24.9336990644 0.3672
