-24.9327308105 1.59193
-24.4340828324 1.56609
-23.9354345838 1.52846
-23.4367860648 1.48388
-22.9381372753 1.43989
-22.4394882153 1.41303
-21.9408388847 1.37573
-21.4421892836 1.35071
-20.9435394119 1.33915
-20.4448892695 1.3118
-19.9462388564 1.26413
-19.4475881727 1.19072
-18.9489372182 1.11681
-18.4502859929 1.05354
-17.9516344969 0.99924
-17.4529827299 0.960121
-16.9543306922 0.887756
-16.4556783835 0.797059
-15.9570258038 0.776553
-15.4583729532 0.767362
-14.9597198316 0.758216
-14.4610664389 0.73717
-13.9624127752 0.690751
-13.4637588404 0.641628
-12.9651046344 0.608278
-12.4664501572 0.563791
-11.9677954089 0.536161
-11.4691403893 0.517392
-10.9704850984 0.51673
-10.4718295362 0.5532
-9.97317370271 0.58036
-9.47451759782 0.565181
-8.97586122152 0.548964
-8.47720457379 0.529175
-7.97854765458 0.44207
-7.47989046387 0.370734
-6.98123300162 0.396181
-6.48257526779 0.427582
-5.98391726236 0.437688
-5.4852589853 0.355404
-4.98660043656 0.28594
-4.48794161612 0.223482
-3.98928252394 0.188368
-3.49062315999 0.149143
-2.99196352424 0.108914
-2.49330361665 0.124679
-1.99464343719 0.139714
-1.49598298583 0.105794
-0.997322262535 0.0713133
-0.498661267268 0.0464561
0 0.0389562
0.498661539303 0.0236922
0.997323350674 0
1.49598543415 0.0102359
1.99464778975 0.0342394
2.49331041753 0.101997
2.9919733175 0.191734
3.49063648971 0.297577
3.98929993418 0.401629
4.48796365096 0.465674
4.98662764006 0.539109
5.48529190153 0.625191
5.9839564354 0.675678
6.4826212417 0.69802
6.98128632047 0.699806
7.47995167173 0.681506
7.97861729552 0.64826
8.47728319188 0.614331
8.97594936083 0.569374
9.47461580241 0.489805
9.97328251665 0.397257
10.4719495036 0.361538
10.9706167633 0.285438
11.4692842957 0.210689
11.9679521009 0.190586
12.4666201789 0.190883
12.9652885298 0.18938
13.4639571536 0.196786
13.9626260504 0.22339
14.4612952201 0.265899
14.9599646627 0.308217
15.4586343784 0.350707
15.9573043672 0.403342
16.455974629 0.418905
16.954645164 0.413129
17.4533159721 0.493756
17.9519870534 0.611456
18.4506584079 0.628705
18.9493300357 0.570508
19.4480019368 0.47074
19.9466741112 0.42169
20.4453465589 0.381815
20.94401928 0.336935
21.4426922746 0.286472
21.9413655426 0.251383
22.440039084 0.257022
22.938712899 0.25752
23.4373869876 0.251902
23.9360613497 0.266903
24.4347359854 0.280814
24.9334108948 0.357391
