-24.9919107209 0.541872
-24.4920764071 0.424799
-23.9922419342 0.320988
-23.4924073022 0.250612
-22.992572511 0.227422
-22.4927375607 0.221499
-21.9929024511 0.211853
-21.4930671825 0.232894
-20.9932317546 0.216137
-20.4933961676 0.200415
-19.9935604214 0.157409
-19.493724516 0.140053
-18.9938884514 0.136101
-18.4940522277 0.132709
-17.9942158447 0.129389
-17.4943793025 0.120134
-16.9945426012 0.106433
-16.4947057406 0.105158
-15.9948687208 0.117333
-15.4950315418 0.124829
-14.9951942036 0.123253
-14.4953567062 0.121599
-13.9955190495 0.13817
-13.4956812336 0.16339
-12.9958432585 0.254538
-12.4960051241 0.379845
-11.9961668305 0.436142
-11.4963283776 0.461982
-10.9964897655 0.480312
-10.4966509941 0.503341
-9.9968120635 0.509181
-9.4969729736 0.493421
-8.99713372443 0.499261
-8.49729431599 0.489437
-7.99745474828 0.479282
-7.49761502128 0.470343
-6.997775135 0.454791
-6.49793508943 0.404866
-5.99809488457 0.360312
-5.49825452042 0.334525
-4.99841399696 0.278452
-4.4985733142 0.159167
-3.99873247213 0.094025
-3.49889147075 0.0525392
-2.99905031005 0.0156001
-2.49920899003 0
-1.99936751069 0.000753542
-1.49952587202 0.00682813
-0.999684074017 0.0158719
-0.499842116678 0.0149663
0 0.0209528
0.499842276023 0.0323496
0.999684711393 0.0343591
1.49952730612 0.0285999
1.99937006019 0.0321562
2.49921297363 0.0599782
2.99905604643 0.0923883
3.4988992786 0.119276
3.99874267014 0.195295
4.49858622106 0.294462
4.99842993135 0.345568
5.49827380103 0.398194
5.9981178301 0.434546
6.49796201856 0.479407
6.99780636641 0.533397
7.49765087366 0.587668
7.99749554031 0.632787
8.49734036637 0.656968
8.99718535184 0.681783
9.49703049673 0.672468
9.99687580103 0.664833
10.4967212648 0.667481
10.9965668879 0.666995
11.4964126705 0.652313
11.9962586125 0.63715
12.496104714 0.629512
12.9959509749 0.609129
13.4957973952 0.602183
13.995643975 0.598464
14.4954907142 0.588947
14.9953376129 0.586975
15.4951846711 0.616833
15.9950318887 0.633959
16.4948792658 0.631339
16.9947268024 0.602607
17.4945744984 0.560462
17.9944223539 0.517975
18.4942703689 0.456977
18.9941185434 0.384957
19.4939668774 0.322366
19.9938153709 0.30068
20.4936640239 0.308587
20.9935128363 0.299737
21.4933618083 0.292391
21.9932109398 0.297063
22.4930602308 0.331452
22.9929096814 0.391346
23.4927592914 0.43234
23.992609061 0.431165
24.4924589901 0.443613
24.9923090787 0.477388
