-24.9961090363 0.749451
-24.4961905198 0.794023
-23.9962718539 0.839139
-23.4963530384 0.849774
-22.9964340734 0.85426
-22.4965149589 0.86167
-21.9965956948 0.831673
-21.4966762812 0.782098
-20.996756718 0.738076
-20.4968370053 0.681615
-19.996917143 0.609815
-19.4969971312 0.53161
-18.9970769698 0.48403
-18.4971566589 0.455823
-17.9972361984 0.434264
-17.4973155884 0.426844
-16.9973948288 0.429943
-16.4974739196 0.429234
-15.9975528609 0.421143
-15.4976316526 0.415134
-14.9977102948 0.404808
-14.4977887873 0.39057
-13.9978671303 0.391848
-13.4979453237 0.447932
-12.9980233676 0.519357
-12.4981012619 0.558305
-11.9981790066 0.5493
-11.4982566017 0.53928
-10.9983340472 0.517017
-10.4984113431 0.47766
-9.99848848948 0.416047
-9.49856548624 0.348793
-8.99864233341 0.278971
-8.49871903098 0.226126
-7.99879557896 0.200806
-7.49887197734 0.162453
-6.99894822612 0.164955
-6.4990243253 0.155071
-5.99910027487 0.129077
-5.49917607484 0.111166
-4.99925172521 0.0611243
-4.49932722596 0.0357265
-3.9994025771 0.0310907
-3.49947777863 0.036662
-2.99955283054 0.0293399
-2.49962773284 0.0200497
-1.99970248552 0.0177501
-1.49977708857 0.0153922
-0.999851542007 0.0103049
-0.499925845817 0.00336599
0 0.00336619
0.499925995445 0.00322742
0.999852140521 0
1.49977843523 0.00441448
1.99970487957 0.0628653
2.49963147355 0.125197
2.99955821716 0.155235
3.49948511042 0.188235
3.99941215331 0.217452
4.49933934585 0.251795
4.99926668804 0.28538
5.49919417987 0.316
5.99912182135 0.315427
6.49904961248 0.319081
6.99897755326 0.338488
7.4989056437 0.340245
7.9988338838 0.333739
8.49876227355 0.33942
8.99869081296 0.339803
9.49861950203 0.314994
9.99854834077 0.284487
10.4984773292 0.273929
10.9984064672 0.274348
11.498335755 0.288991
11.9982651924 0.287681
12.4981947795 0.287956
12.9981245162 0.287706
13.4980544027 0.287886
13.9979844388 0.29693
14.4979146246 0.306265
14.99784496 0.323481
15.4977754452 0.346432
15.99770608 0.360707
16.4976368645 0.419059
16.9975677988 0.465441
17.4974988827 0.448734
17.9974301163 0.441061
18.4973614996 0.433496
18.9972930325 0.442943
19.4972247152 0.473492
19.9971565476 0.484304
20.4970885297 0.506616
20.9970206615 0.582589
21.496952943 0.629926
21.9968853741 0.644324
22.4968179551 0.690163
22.9967506857 0.747405
23.496683566 0.769645
23.996616596 0.728437
24.4965497758 0.667051
24.9964831052 0.679041
