-24.931796286 0.475036
-24.4331671162 0.491369
-23.9345376713 0.524576
-23.4359079511 0.535209
-22.9372779556 0.542806
-22.4386476848 0.494351
-21.9400171387 0.451338
-21.4413863171 0.408627
-20.9427552202 0.392531
-20.4441238478 0.383202
-19.9454921999 0.365054
-19.4468602765 0.363944
-18.9482280776 0.356063
-18.449595603 0.315306
-17.9509628529 0.260207
-17.4523298271 0.253345
-16.9536965256 0.250967
-16.4550629483 0.242597
-15.9564290954 0.236183
-15.4577949666 0.211333
-14.959160562 0.18863
-14.4605258816 0.190394
-13.9618909252 0.222994
-13.463255693 0.264312
-12.9646201848 0.273986
-12.4659844006 0.267051
-11.9673483403 0.29444
-11.4687120041 0.334169
-10.9700753917 0.364272
-10.4714385032 0.374081
-9.97280133851 0.374723
-9.47416389765 0.372152
-8.97552618057 0.365291
-8.47688818723 0.362141
-7.97824991759 0.320273
-7.47961137162 0.254272
-6.9809725493 0.199404
-6.48233345058 0.155225
-5.98369407543 0.124221
-5.48505442382 0.107888
-4.98641449571 0.102627
-4.48777429107 0.0959292
-3.98913380987 0.0910402
-3.49049305208 0.0849818
-2.99185201765 0.0757597
-2.49321070657 0.059516
-1.99456911878 0.0410051
-1.49592725427 0.0249069
-0.997285112986 0.013576
-0.498642694909 0.00530336
0 0.00473995
0.498642971773 0.0103091
0.997286220445 0.0125949
1.49592974605 0.010752
1.99457354862 0
2.49321762818 0.0150082
2.99186198478 0.0329377
3.49050661845 0.0404295
3.98915152921 0.0556265
4.48779671711 0.0838986
4.98644218217 0.11343
5.48508792443 0.16269
5.98373394392 0.202843
6.48238024068 0.212462
6.98102681475 0.20024
7.47967366614 0.173622
7.9783207949 0.153211
8.47696820106 0.221528
8.97561588465 0.303439
9.47426384571 0.324829
9.97291208428 0.343571
10.4715606004 0.341748
10.970209394 0.364988
11.4688584653 0.428893
11.9675078142 0.447327
12.4661574408 0.42815
12.964807345 0.431957
13.463457527 0.448227
13.9621079868 0.458486
14.4607587243 0.466577
14.9594097397 0.472629
15.458061033 0.47608
15.9567126042 0.480178
16.4553644533 0.479262
16.9540165803 0.477065
17.4526689854 0.474988
17.9513216685 0.475199
18.4499746297 0.476894
18.9486278689 0.471333
19.4472813863 0.460765
19.9459351819 0.455987
20.4445892557 0.461205
20.9432436077 0.46458
21.4418982379 0.461793
21.9405531465 0.453566
22.4392083334 0.451554
22.9378637987 0.445894
23.4365195423 0.450871
23.9351755644 0.429454
24.433831865 0.415253
24.9324884441 0.379573
