-24.9318085069 0.941207
-24.4331790947 0.977224
-23.9345494072 1.04932
-23.4359194444 1.05122
-22.9372892062 1.00137
-22.4386586926 0.986379
-21.9400279036 0.999898
-21.4413968391 1.01958
-20.9427654991 0.992332
-20.4441338836 0.94688
-19.9455019925 0.878985
-19.4468698259 0.848099
-18.9482373836 0.845934
-18.4496046656 0.814878
-17.9509716719 0.764302
-17.4523384025 0.759249
-16.9537048574 0.738896
-16.4550710364 0.690143
-15.9564369396 0.628253
-15.4578025669 0.622095
-14.9591679184 0.597953
-14.4605329939 0.575759
-13.9618977934 0.525309
-13.4632623169 0.44823
-12.9646265644 0.419566
-12.4659905358 0.398163
-11.9673542311 0.365837
-11.4687176503 0.36405
-10.9700807933 0.360753
-10.4714436601 0.365221
-9.97280625066 0.365437
-9.47416856495 0.352767
-8.97553060294 0.33647
-8.47689236458 0.32277
-7.97825384985 0.306849
-7.47961505871 0.291516
-6.98097599113 0.286209
-6.48233664708 0.281748
-5.98369702652 0.278731
-5.48505712942 0.280324
-4.98641695575 0.291693
-4.48777650546 0.321537
-3.98913577854 0.374743
-3.49049477494 0.371812
-2.99185349463 0.368902
-2.49321193757 0.251572
-1.99457010375 0.163539
-1.49592799311 0.115028
-0.997285605626 0.0734345
-0.498642941269 0.0585547
0 0.051304
0.498643218212 0.0378996
0.997286713402 0.0126373
1.4959304856 0.014031
1.99457453485 0.0253767
2.49321886117 0.0213688
2.9918634646 0.0141275
3.49050834518 0.0094051
3.98915350294 0.0039659
4.48779893791 0.0050748
4.98644465012 0.0122543
5.48509063961 0.00397008
5.98373690641 0
6.48238345056 0.0037194
6.98103027209 0.00714274
7.47967737103 0.00951334
7.97832474742 0.00946571
8.47697240128 0.00981121
8.97562033266 0.0156761
9.47426854158 0.0289866
9.97291702809 0.0552274
10.4715657922 0.085754
10.970214834 0.133078
11.4688641534 0.201039
11.9675137506 0.268817
12.4661636255 0.342094
12.9648137781 0.446305
13.4634642086 0.579707
13.962114917 0.673057
14.4607659032 0.76337
14.9594171673 0.889725
15.4580687094 1.00039
15.9567205294 1.09785
16.4553726275 1.1306
16.9540250036 1.15286
17.4526776578 1.14296
17.9513305901 1.12685
18.4499838006 1.10028
18.9486372892 1.09164
19.4472910561 1.09239
19.9459451011 1.06105
20.4445994245 0.981475
20.9432540262 0.877463
21.4419089062 0.780518
21.9405640646 0.689303
22.4392195014 0.62345
22.9378752167 0.564183
23.4365312104 0.499745
23.9351874827 0.431541
24.4338440335 0.354521
24.9325008629 0.31507
