-24.9647961846 1.24925
-24.4655056278 1.31442
-23.9662148523 1.37149
-23.4669238579 1.40285
-22.9676326448 1.40241
-22.4683412128 1.39254
-21.969049562 1.34416
-21.4697576923 1.24811
-20.9704656037 1.17394
-20.4711732962 1.13287
-19.9718807698 1.07906
-19.4725880245 0.975624
-18.9732950602 0.924058
-18.4740018769 0.88815
-17.9747084747 0.852546
-17.4754148534 0.810954
-16.9761210131 0.761821
-16.4768269538 0.643861
-15.9775326754 0.517924
-15.478238178 0.476149
-14.9789434614 0.453911
-14.4796485258 0.40598
-13.980353371 0.402568
-13.4810579971 0.409497
-12.981762404 0.409294
-12.4824665917 0.404526
-11.9831705602 0.405178
-11.4838743095 0.412189
-10.9845778396 0.40287
-10.4852811504 0.396198
-9.98598424196 0.382751
-9.48668711423 0.36286
-8.98738976719 0.319479
-8.48809220084 0.264667
-7.98879441515 0.23352
-7.4894964101 0.193767
-6.99019818568 0.12082
-6.49089974188 0.0456527
-5.99160107866 0.00405093
-5.49230219602 0.00258791
-4.99300309394 0.00665761
-4.4937037724 0.00652748
-3.99440423138 0.00197505
-3.49510447087 0.00390066
-2.99580449085 0.00514669
-2.49650429129 0.00661438
-1.9972038722 0.0094276
-1.49790323354 0.0114497
-0.998602375294 0.0112496
-0.499301297455 0.0108506
0 0.0128176
0.499301517088 0.0128782
0.998603253825 0.0120192
1.49790521023 0.0120647
1.99720738632 0.000801837
2.49650978211 0
2.99581239762 0.00479834
3.49511523286 0.0126322
3.99441828786 0.0152108
4.49372156263 0.014359
4.99302505719 0.00836358
5.49232877156 0.0110731
5.99163270574 0.0222829
6.49093685977 0.0559566
6.99024123365 0.126297
7.48954582741 0.233717
7.98885064106 0.35045
8.48815567462 0.458289
8.9874609281 0.559421
9.48676640153 0.645391
9.98607209491 0.724933
10.4853780083 0.797089
10.9846841416 0.834832
11.483990495 0.863164
11.9832970684 0.88793
12.4826038619 0.853212
12.9819108754 0.777801
13.481218109 0.6635
13.9805255626 0.524079
14.4798332365 0.467948
14.9791411304 0.466756
15.4784492445 0.4951
15.9777575787 0.539282
16.4770661332 0.581655
16.9763749078 0.61468
17.4756839027 0.658807
17.9749931177 0.718084
18.4743025531 0.785542
18.9736122087 0.837711
19.4729220846 0.862788
19.9722321808 0.906495
20.4715424973 0.975851
20.9708530342 1.00409
21.4701637914 1.0125
21.969474769 1.01025
22.4687859669 1.00701
22.9680973853 1.00325
23.4674090241 0.996958
23.9667208833 1.01637
24.466032963 1.06016
24.9653452632 1.08868
