-24.9576562044 0.614435
-24.4585088449 0.561254
-23.9593612504 0.534344
-23.460213421 0.538154
-22.9610653566 0.563548
-22.4619170571 0.559589
-21.9627685226 0.578267
-21.4636197531 0.605851
-20.9644707485 0.6238
-20.4653215087 0.60021
-19.9661720339 0.597485
-19.4670223239 0.611181
-18.9678723788 0.625653
-18.4687221984 0.626889
-17.9695717829 0.623732
-17.4704211321 0.608419
-16.9712702461 0.590868
-16.4721191248 0.559108
-15.9729677683 0.536245
-15.4738161764 0.527739
-14.9746643492 0.515849
-14.4755122866 0.488897
-13.9763599887 0.446479
-13.4772074554 0.461662
-12.9780546866 0.463899
-12.4789016824 0.44797
-11.9797484428 0.40387
-11.4805949677 0.357374
-10.9814412571 0.315455
-10.4822873109 0.262368
-9.98313312927 0.22505
-9.48397871203 0.193707
-8.98482405921 0.20266
-8.48566917079 0.193745
-7.98651404674 0.192282
-7.48735868705 0.187946
-6.98820309169 0.160897
-6.48904726064 0.140718
-5.98989119389 0.114996
-5.49073489141 0.065502
-4.99157835317 0.0215956
-4.49242157917 0
-3.99326456937 0.00680281
-3.49410732376 0.0227823
-2.99494984232 0.0175532
-2.49579212502 0.0161237
-1.99663417185 0.0217065
-1.49747598279 0.0277134
-0.998317557802 0.0211394
-0.499158896881 0.0144725
0 0.003756
0.499159132859 0.00429681
0.998318501719 0.00577315
1.4974781066 0.0120803
1.99663794752 0.0250674
2.49579802451 0.0370051
2.99495833757 0.034225
3.49411888675 0.0592224
3.99327967204 0.0771363
4.49244069349 0.107038
4.99160195109 0.158123
5.49076344489 0.194003
5.98992517489 0.221942
6.48908714113 0.256974
6.98824934361 0.277306
7.48741178236 0.279664
7.9865744574 0.292695
8.48573736876 0.314152
8.98490051644 0.324867
9.48406390048 0.369617
9.9832275209 0.427304
10.4823913777 0.502651
10.9815554709 0.551124
11.4807198006 0.576706
11.9798843667 0.601919
12.4790491693 0.602343
12.9782142084 0.633924
13.477379484 0.688998
13.9765449961 0.731255
14.4757107449 0.77721
14.9748767301 0.846075
15.474042952 0.855843
15.9732094105 0.848914
16.4723761057 0.841913
16.9715430375 0.863248
17.470710206 0.925441
17.9698776112 0.979615
18.4690452531 1.01631
18.9682131318 1.02927
19.4673812473 1.02264
19.9665495995 1.00411
20.4657181885 0.998581
20.9648870144 1.00786
21.4640560771 1.02166
21.9632253767 1.02393
22.4623949132 1.01078
22.9615646865 1.0006
23.4607346969 0.981711
23.9599049441 0.968377
24.4590754284 0.961046
24.9582461496 0.957074
