-24.9327857074 1.73085
-24.43413664 1.72736
-23.9354873019 1.71962
-23.436837693 1.68724
-22.9381878132 1.62555
-22.4395376626 1.59361
-21.9408872411 1.60875
-21.4422365486 1.62276
-20.9435855852 1.61449
-20.4449343508 1.60124
-19.9462828453 1.5979
-19.4476310688 1.59858
-18.9489790212 1.60079
-18.4503267024 1.60272
-17.9516741125 1.60631
-17.4530212514 1.59384
-16.9543681191 1.57996
-16.4557147155 1.59576
-15.9570610406 1.60844
-15.4584070944 1.58455
-14.9597528768 1.55854
-14.4610983878 1.53302
-13.9624436273 1.50368
-13.4637885955 1.48534
-12.9651332921 1.45108
-12.4664777172 1.37777
-11.9678218707 1.31904
-11.4691657526 1.26972
-10.9705093629 1.2301
-10.4718527015 1.1903
-9.97319576847 1.14934
-9.47453856368 1.08946
-8.97588108713 1.06022
-8.47722333878 1.05145
-7.9785653186 1.02793
-7.47990702656 0.950239
-6.98124846262 0.925751
-6.48258962676 0.90422
-5.98393051893 0.900091
-5.48527113911 0.904742
-4.98661148726 0.907921
-4.48795156336 0.879808
-3.98929136735 0.847903
-3.49063089923 0.828699
-2.99197015894 0.805847
-2.49330914646 0.787455
-1.99464786175 0.769533
-1.49598630478 0.781742
-0.997324475525 0.795287
-0.498662373942 0.792314
0 0.785395
0.498662646332 0.779389
0.997325565089 0.785881
1.4959887563 0.798503
1.99465222001 0.789318
2.49331595624 0.770615
2.99197996502 0.750467
3.49064424639 0.724621
3.98930880039 0.69623
4.48797362704 0.688906
4.98663872638 0.703712
5.48530409844 0.721839
5.98396974325 0.757573
6.48263566085 0.800519
6.98130185127 0.838475
7.47996831455 0.868123
7.97863505071 0.849569
8.47730205979 0.828111
8.97596934182 0.809825
9.47463689683 0.804952
9.97330472487 0.830785
10.4719728259 0.847889
10.9706412001 0.845569
11.4693098474 0.785025
11.9679787678 0.714223
12.4666479614 0.672351
12.9653174283 0.662579
13.4639871684 0.703196
13.9626571817 0.749644
14.4613274684 0.658746
14.9599980284 0.540025
15.4586688618 0.36719
15.9573399686 0.502354
16.4560113489 0.561094
16.9546830026 0.418763
17.4533549298 0.117269
17.9520271306 0
18.450699605 0.239008
18.9493723529 0.55424
19.4480453745 0.800883
19.9467186698 0.992597
20.4453922388 1.31795
20.9440660815 1.38163
21.4427401981 1.377
21.9414145884 1.35936
22.4400892525 1.31682
22.9387641905 1.2959
23.4374394024 1.27731
23.9361148883 1.26638
24.4347906481 1.26803
24.933466682 1.30873
