-24.9961317259 0.581326
-24.4962127577 0.610075
-23.9962936398 0.639979
-23.4963743722 0.682337
-22.9964549551 0.731738
-22.4965353884 0.774768
-21.996615672 0.815096
-21.496695806 0.840025
-20.9967757904 0.835609
-20.4968556252 0.856732
-19.9969353104 0.871911
-19.4970148459 0.822962
-18.9970942318 0.705923
-18.497173468 0.650535
-17.9972525547 0.591999
-17.4973314916 0.519529
-16.997410279 0.447603
-16.4974889167 0.417345
-15.9975674048 0.410553
-15.4976457432 0.419157
-14.997723932 0.412849
-14.4978019711 0.393187
-13.9978798606 0.347338
-13.4979576004 0.299005
-12.9980351906 0.279071
-12.4981126311 0.244552
-11.9981899219 0.228703
-11.4982670631 0.241518
-10.9983440547 0.277419
-10.4984208965 0.317417
-9.99849758875 0.365918
-9.49857413128 0.395412
-8.99865052415 0.385831
-8.49872676734 0.3564
-7.99880286086 0.340263
-7.49887880471 0.313027
-6.99895459888 0.266883
-6.49903024336 0.254819
-5.99910573817 0.2362
-5.49918108329 0.163327
-4.99925627873 0.089662
-4.49933132448 0.0414871
-3.99940622054 0.0150093
-3.49948096691 0.0170216
-2.99955556359 0.033296
-2.49963001057 0.0487648
-1.99970430786 0.0421053
-1.49977845545 0.0271341
-0.999852453334 0.0151726
-0.499926301519 0.00641068
0 0
0.499926451225 0.00082329
0.999853052159 0.0143018
1.4997798028 0.0340213
1.99970670316 0.0528101
2.49963375323 0.0502242
2.99956095301 0.0504566
3.49948830251 0.102953
3.99941580173 0.146623
4.49934345067 0.172746
4.99927124934 0.164936
5.49919919772 0.186429
5.99912729584 0.208014
6.49905554368 0.246472
6.99898394126 0.270548
7.49891248856 0.272996
7.9988411856 0.286104
8.49877003237 0.318259
8.99869902889 0.365437
9.49862817514 0.406786
9.99855747113 0.423939
10.4984869169 0.423798
10.9984165123 0.395944
11.4983462576 0.365276
11.9982761525 0.346068
12.4982061973 0.331125
12.9981363917 0.317791
13.498066736 0.312358
13.99799723 0.297273
14.4979278737 0.301316
14.9978586672 0.314517
15.4977896105 0.317503
15.9977207035 0.318936
16.4976519463 0.321716
16.9975833388 0.325697
17.4975148811 0.315571
17.9974465732 0.32343
18.4973784151 0.346597
18.9973104067 0.377229
19.4972425481 0.406614
19.9971748393 0.468758
20.4971072803 0.576208
20.997039871 0.72006
21.4969726115 0.858365
21.9969055018 1.00162
22.4968385419 1.12565
22.9967717318 1.19405
23.4967050715 1.21801
23.9966385609 1.12774
24.4965722002 1.00991
24.9965059892 0.912226
