-24.9327899036 1.07148
-24.434140753 1.11353
-23.9354913315 1.14255
-23.4368416393 1.11442
-22.9381916762 1.03807
-22.4395414422 1.01253
-21.9408909373 0.990033
-21.4422401614 0.961454
-20.9435891146 0.916871
-20.4449377967 0.889754
-19.9462862077 0.865441
-19.4476343477 0.836142
-18.9489822165 0.808971
-18.4503298142 0.813779
-17.9516771407 0.812223
-17.4530241959 0.809263
-16.9543709799 0.809483
-16.4557174926 0.808837
-15.957063734 0.788768
-15.458409704 0.760593
-14.9597554026 0.736963
-14.4611008299 0.727513
-13.9624459856 0.746227
-13.4637908699 0.765421
-12.9651354826 0.669971
-12.4664798238 0.615822
-11.9678238934 0.572687
-11.4691676913 0.548404
-10.9705112176 0.524031
-10.4718544722 0.504277
-9.97319745512 0.475428
-9.47454016626 0.450299
-8.9758826056 0.415776
-8.47722477312 0.408144
-7.97856666879 0.375433
-7.47990829256 0.321148
-6.98124964442 0.32846
-6.48259072432 0.305217
-5.98393153223 0.267361
-5.48527206811 0.256116
-4.98661233195 0.239263
-4.48795232369 0.231389
-3.98929204332 0.21985
-3.49063149079 0.211914
-2.99197066607 0.203871
-2.49330956914 0.200918
-1.99464819995 0.188801
-1.49598655847 0.173767
-0.99732464468 0.174074
-0.498662458533 0.173591
0 0.154063
0.49866273095 0.134598
0.997325734353 0.111731
1.49598901024 0.0801975
1.99465255864 0.0425383
2.4933163796 0.0136289
2.99198047314 0
3.49064483929 0.04729
3.9893094781 0.16974
4.48797438958 0.391848
4.98663957378 0.406959
5.48530503073 0.238872
5.98397076046 0.186098
6.48263676301 0.174906
6.9813030384 0.275905
7.47996958668 0.411006
7.97863640786 0.532952
8.47730350199 0.612413
8.97597086911 0.682479
9.47463850923 0.680625
9.9733064224 0.682063
10.4719746086 0.621618
10.970643068 0.517087
11.4693118005 0.388639
11.9679808062 0.249341
12.4666500851 0.121026
12.9653196372 0.0878937
13.4639894626 0.120245
13.9626595613 0.181867
14.4613299333 0.242326
14.9600005788 0.323823
15.4586714976 0.337979
15.9573426899 0.324263
16.4560141556 0.477776
16.9546858948 0.647089
17.4533579076 0.674836
17.952030194 0.591339
18.4507027539 0.502367
18.9493755875 0.485991
19.4480486948 0.511655
19.9467220757 0.552522
20.4453957304 0.579389
20.9440696589 0.595154
21.4427438612 0.629092
21.9414183373 0.679792
22.4400930872 0.738795
22.9387681111 0.803917
23.4374434089 0.876468
23.9361189806 0.919697
24.4347948264 0.887971
24.9334709461 0.833525
