-24.9317892149 0.391901
-24.4331601855 0.404097
-23.9345308809 0.48685
-23.435901301 0.575524
-22.937271446 0.571874
-22.4386413157 0.552343
-21.9400109101 0.606967
-21.4413802291 0.659323
-20.9427492728 0.691076
-20.4441180411 0.652469
-19.9454865339 0.582318
-19.4468547512 0.497978
-18.9482226931 0.45261
-18.4495903594 0.423871
-17.9509577501 0.403262
-17.4523248653 0.374356
-16.9536917048 0.362018
-16.4550582686 0.369578
-15.9564245567 0.416216
-15.457790569 0.450092
-14.9591563056 0.435071
-14.4605217664 0.427469
-13.9618869513 0.43945
-13.4632518604 0.415636
-12.9646164935 0.352399
-12.4659808507 0.296619
-11.9673449319 0.247156
-11.4687087371 0.229282
-10.9700722663 0.233408
-10.4714355194 0.221957
-9.97279849632 0.21827
-9.47416119713 0.204146
-8.97552362177 0.202312
-8.47688577019 0.207696
-7.97824764237 0.243044
-7.47960923826 0.256931
-6.98097055784 0.255705
-6.48233160106 0.219347
-5.98369236791 0.161447
-5.48505285834 0.0993688
-4.98641307232 0.0771578
-4.48777300982 0.0690403
-3.9891326708 0.0705214
-3.49049205523 0.0732827
-2.99185116307 0.050828
-2.4932099943 0.0313214
-1.99456854888 0.0322606
-1.49592682677 0.0310731
-0.997284827942 0.0178513
-0.498642552364 0.00935937
0 0
0.498642829183 0.00653945
0.997285935217 0.0149601
1.49592931814 0.0244612
1.99457297798 0.0347414
2.49321691477 0.0394894
2.99186112855 0.0327272
3.49050561935 0.0225143
3.9891503872 0.0209028
4.48779543214 0.083386
4.9864407542 0.176344
5.48508635341 0.285314
5.98373222981 0.40313
6.48237838343 0.473574
6.98102481431 0.480815
7.47967152247 0.482479
7.97831850795 0.498362
8.47696577079 0.505317
8.97561331101 0.523072
9.47426112866 0.52021
9.97290922376 0.513031
10.4715575963 0.484567
10.9702062465 0.436393
11.4688551741 0.399979
11.9675043794 0.405671
12.4661538622 0.448426
12.9648036228 0.530675
13.463453661 0.59996
13.9621039769 0.653124
14.4607545706 0.681164
14.9594054421 0.691633
15.4580565914 0.708083
15.9567080186 0.733946
16.4553597236 0.773477
16.9540117066 0.80936
17.4526639675 0.843496
17.9513165064 0.877126
18.4499693233 0.910557
18.9486224183 0.942064
19.4472757914 0.94958
19.9459294426 0.926129
20.4445833719 0.929276
20.9432375795 0.938704
21.4418920652 0.935898
21.9405468292 0.959642
22.4392018715 0.977646
22.9378571921 0.978446
23.4365127911 0.96176
23.9351686685 0.881469
24.4338248243 0.816497
24.9324812585 0.802495
