-24.9335091468 0.682522
-24.4348457128 0.740123
-23.9361820039 0.747271
-23.43751802 0.745593
-22.9388537612 0.752221
-22.4401892272 0.767439
-21.9415244183 0.788979
-21.4428593342 0.814355
-20.9441939749 0.820865
-20.4455283405 0.863192
-19.9468624309 0.89442
-19.448196246 0.917369
-18.9495297859 0.8558
-18.4508630505 0.784896
-17.9521960397 0.745224
-17.4535287536 0.725635
-16.954861192 0.694026
-16.456193355 0.664531
-15.9575252426 0.626872
-15.4588568546 0.591835
-14.9601881912 0.573111
-14.4615192521 0.541968
-13.9628500375 0.509134
-13.4641805472 0.476946
-12.9655107812 0.434846
-12.4668407396 0.367376
-11.9681704222 0.296494
-11.469499829 0.229757
-10.9708289601 0.177013
-10.4721578153 0.148457
-9.97348639465 0.121234
-9.47481469812 0.100037
-8.97614272565 0.0949043
-8.47747047722 0.10657
-7.97879795279 0.1436
-7.48012515234 0.168331
-6.98145207583 0.187645
-6.48277872323 0.173362
-5.9841050945 0.149586
-5.48543118961 0.16407
-4.98675700853 0.141482
-4.48808255122 0.110914
-3.98940781766 0.102404
-3.49073280781 0.101072
-2.99205752164 0.072079
-2.49338195911 0.0446552
-1.99470612019 0.0308784
-1.49603000486 0.0455703
-0.997353613069 0.0188573
-0.498676944794 0.0159258
0 0.0238549
0.498677221344 0.0288003
0.997354719273 0.0215228
1.49603249382 0.0109674
1.99471054501 0
2.49338887289 0.00670025
2.99206747748 0.0318191
3.49074635882 0.0566313
3.98942551693 0.0517317
4.48810495186 0.0462369
4.98678466364 0.0522457
5.48546465229 0.0547101
5.98414491785 0.0517289
6.48282546036 0.0475016
6.98150627984 0.0474972
7.48018737633 0.0564606
7.97886874986 0.0821995
8.47755040046 0.148385
8.97623232817 0.266014
9.47491453302 0.396467
9.97359701503 0.493038
10.4722797743 0.561795
10.9709628107 0.633894
11.4696461244 0.658852
11.9683297155 0.636744
12.4670135838 0.637406
12.9656977295 0.641749
13.4643821527 0.642508
13.9630668532 0.646964
14.4617518312 0.661707
14.9604370868 0.699877
15.4591226198 0.750733
15.9578084304 0.809723
16.4564945186 0.863457
16.9551808844 0.908735
17.4538675279 0.966664
17.9525544491 1.08896
18.451241648 1.21018
18.9499291246 1.29618
19.4486168791 1.37464
19.9473049113 1.44115
20.4459932214 1.47978
20.9446818094 1.47402
21.4433706754 1.44602
21.9420598192 1.40601
22.4407492411 1.38663
22.9394389409 1.38205
23.4381289188 1.37878
23.9368191748 1.26804
24.4355097089 1.13461
24.9342005212 0.996836
