-24.9317856555 0.691161
-24.4331566967 0.659123
-23.9345274627 0.63074
-23.4358979536 0.631329
-22.9372681692 0.635284
-22.4386381096 0.639315
-21.9400077747 0.637221
-21.4413771645 0.626126
-20.942746279 0.658013
-20.4441151181 0.680694
-19.9454836817 0.687252
-19.4468519699 0.630866
-18.9482199827 0.590458
-18.4495877199 0.596144
-17.9509551815 0.607977
-17.4523223676 0.610761
-16.9536892781 0.603877
-16.4550559129 0.587053
-15.956422272 0.581939
-15.4577883554 0.57528
-14.959154163 0.55548
-14.4605196949 0.532987
-13.9618849509 0.535773
-13.4632499311 0.552205
-12.9646146354 0.561782
-12.4659790638 0.564774
-11.9673432162 0.582367
-11.4687070926 0.585855
-10.970070693 0.567223
-10.4714340174 0.581863
-9.97279706561 0.584899
-9.47415983775 0.579873
-8.97552233372 0.565503
-8.47688455351 0.529113
-7.97824649707 0.496123
-7.47960816437 0.508526
-6.98096955538 0.487173
-6.48233067006 0.464721
-5.98369150838 0.428992
-5.48505207031 0.367371
-4.98641235582 0.320923
-4.48777236486 0.305966
-3.98913209741 0.269279
-3.49049155343 0.19585
-2.99185073289 0.136588
-2.49320963576 0.0826068
-1.994568262 0.0501126
-1.49592661157 0.021357
-0.997284684456 0.0171131
-0.498642480609 0.022958
0 0.0163236
0.498642757405 0.00933845
0.99728579164 0.00417566
1.49592910274 0.00189485
1.99457269073 0
2.49321655565 0.00658093
2.99186069754 0.0158078
3.49050511642 0.016972
3.98914981234 0.0163268
4.48779478531 0.0169167
4.98644003539 0.0173691
5.48508556259 0.0201859
5.98373136696 0.0286582
6.48237744853 0.0289704
6.98102380733 0.0295015
7.47967044339 0.0335569
7.97831735675 0.0424157
8.47696454744 0.0428993
8.9756120155 0.0375746
9.47425976095 0.0309483
9.97290778384 0.0312501
10.4715560842 0.0365443
10.970204662 0.0307533
11.4688535174 0.0240953
11.9675026504 0.0307763
12.4661520609 0.0379149
12.9648017491 0.0336836
13.4634517149 0.0319203
13.9621019585 0.044618
14.4607524797 0.0810567
14.9594032788 0.151457
15.4580543556 0.231824
15.9567057103 0.316797
16.4553573428 0.413612
16.9540092532 0.545198
17.4526614416 0.697937
17.9513139079 0.817304
18.4499666522 0.922756
18.9486196746 1.01529
19.447272975 1.09247
19.9459265535 1.06608
20.4445804102 1.05637
20.943234545 1.05523
21.441888958 1.0541
21.9405436492 1.03718
22.4391986188 1.00959
22.9378538666 0.992059
23.4365093927 0.981055
23.9351651972 0.952774
24.4338212801 0.911797
24.9324776414 0.889942
