-24.991861673 0.399315
-24.4920283357 0.434223
-23.9921948395 0.382116
-23.4923611843 0.31762
-22.9925273702 0.252946
-22.492693397 0.192087
-21.9928592649 0.147562
-21.4930249738 0.118623
-20.9931905237 0.120033
-20.4933559147 0.108251
-19.9935211466 0.049758
-19.4936862195 0.0441462
-18.9938511334 0.112915
-18.4940158883 0.172743
-17.9941804843 0.19405
-17.4943449211 0.225548
-16.994509199 0.270597
-16.4946733178 0.319951
-15.9948372777 0.381967
-15.4950010784 0.45531
-14.9951647202 0.544824
-14.4953282029 0.579509
-13.9954915265 0.578945
-13.4956546911 0.553902
-12.9958176967 0.505384
-12.4959805432 0.451964
-11.9961432306 0.440305
-11.496305759 0.436664
-10.9964681283 0.446174
-10.4966303385 0.462754
-9.99679238966 0.454279
-9.49695428172 0.444617
-8.9971160147 0.444536
-8.49727758859 0.381435
-7.99743900338 0.31989
-7.49760025908 0.276608
-6.99776135567 0.277837
-6.49792229316 0.279356
-5.99808307153 0.272767
-5.4982436908 0.238341
-4.99840415094 0.180076
-4.49856445196 0.13676
-3.99872459386 0.110043
-3.49888457662 0.0963355
-2.99904440026 0.0936581
-2.49920406475 0.0625697
-1.9993635701 0.0125073
-1.49952291631 0.000570565
-0.999682103359 0.00183139
-0.499841131259 0
0 0.00439817
0.49984129042 0.0105221
0.999682740007 0.0124535
1.49952434876 0.00533306
1.9993661167 0.00502918
2.4992080438 0.00264826
2.9990501301 0.00269496
3.49889237557 0.00828544
3.99873478024 0.0191636
4.4985773441 0.0414208
4.99842006716 0.0606868
5.49826294942 0.0643453
5.99810599089 0.0657832
6.49794919156 0.094646
6.99779255145 0.108508
7.49763607056 0.161123
7.99747974889 0.222338
8.49732358644 0.298276
8.99716758323 0.368348
9.49701173924 0.408383
9.9968560545 0.433528
10.496700529 0.457575
10.9965451627 0.473023
11.4963899557 0.475707
11.996234908 0.470614
12.4960800195 0.461456
12.9959252902 0.45108
13.4957707202 0.456616
13.9956163095 0.485766
14.4954620581 0.534034
14.9953079659 0.580329
15.495154033 0.588948
15.9950002594 0.598937
16.4948466451 0.61875
16.9946931901 0.628417
17.4945398944 0.603036
17.994386758 0.556018
18.4942337808 0.503078
18.994080963 0.421053
19.4939283045 0.340813
19.9937758053 0.263118
20.4936234655 0.182413
20.9934712849 0.110188
21.4933192637 0.0803472
21.9931674018 0.0795054
22.4930156992 0.0830077
22.992864156 0.079523
23.4927127721 0.0759096
23.9925615476 0.0810902
24.4924104824 0.0932551
24.9922595765 0.124068
