-24.9959504266 0.444619
-24.496035069 0.57795
-23.9961195624 0.662502
-23.4962039068 0.735029
-22.9962881022 0.743698
-22.4963721487 0.735815
-21.9964560461 0.732571
-21.4965397946 0.628999
-20.996623394 0.56472
-20.4967068445 0.547077
-19.9967901459 0.515081
-19.4968732984 0.456627
-18.9969563018 0.434734
-18.4970391563 0.457547
-17.9971218617 0.512246
-17.4972044181 0.538189
-16.9972868255 0.570462
-16.4973690839 0.601858
-15.9974511933 0.667124
-15.4975331537 0.744711
-14.997614965 0.811018
-14.4976966273 0.83889
-13.9977781406 0.848139
-13.4978595049 0.711715
-12.9979407201 0.51266
-12.4980217863 0.372871
-11.9981027035 0.237895
-11.4981834716 0.156886
-10.9982640907 0.134801
-10.4983445607 0.12916
-9.99842488174 0.150548
-9.49850505371 0.16567
-8.99858507663 0.178248
-8.4986649505 0.198078
-7.99874467532 0.229969
-7.49882425109 0.282811
-6.9989036778 0.232304
-6.49898295546 0.16406
-5.99906208406 0.134278
-5.4991410636 0.130268
-4.99921989408 0.14744
-4.49929857549 0.15847
-3.99937710784 0.163214
-3.49945549112 0.163387
-2.99953372533 0.146737
-2.49961181047 0.11526
-1.99968974653 0.0688635
-1.49976753352 0.0683159
-0.999845171424 0.0709548
-0.499922660254 0.0730834
0 0.096276
0.499922809337 0.113458
0.99984576776 0.131415
1.49976887527 0.159112
1.99969213187 0.184003
2.49961553756 0.204091
2.99953909235 0.221506
3.49946279623 0.224448
3.99938664921 0.184814
4.49931065129 0.126683
4.99923480247 0.0555916
5.49915910275 0.0258382
5.99908355214 0.0129372
6.49900815064 0.00232142
6.99893289824 0
7.49885779496 0.0120352
7.99878284079 0.0146321
8.49870803573 0.0377285
8.99863337979 0.0498525
9.49855887297 0.0493238
9.99848451527 0.0451539
10.4984103067 0.0479822
10.9983362472 0.0648847
11.4982623369 0.0751736
11.9981885757 0.0706761
12.4981149636 0.0638459
12.9980415007 0.0570512
13.4979681869 0.0506573
13.9978950222 0.0269321
14.4978220067 0.0649081
14.9977491403 0.0868572
15.4976764231 0.0974399
15.997603855 0.118929
16.497531436 0.168175
16.9974591662 0.238712
17.4973870455 0.33063
17.997315074 0.443365
18.4972432516 0.53976
18.9971715784 0.548979
19.4971000544 0.575164
19.9970286795 0.606779
20.4969574537 0.62415
20.9968863771 0.608663
21.4968154497 0.596034
21.9967446715 0.608486
22.4966740424 0.628266
22.9966035625 0.603909
23.4965332317 0.567774
23.9964630502 0.543764
24.4963930178 0.526057
24.9963231345 0.521396
