-24.9327562274 1.69475
-24.4341077449 1.6576
-23.9354589919 1.62605
-23.4368099682 1.58848
-22.9381606739 1.56121
-22.439511109 1.52665
-21.9408612733 1.46523
-21.4422111669 1.42229
-20.9435607898 1.37384
-20.4449101418 1.33005
-19.946259223 1.31442
-19.4476080333 1.27208
-18.9489565727 1.23138
-18.4503048411 1.19584
-17.9516528386 1.18789
-17.4530005651 1.18564
-16.9543480206 1.16489
-16.4556952049 1.1335
-15.9570421182 1.1075
-15.4583887603 1.07782
-14.9597351313 1.05429
-14.461081231 1.03636
-13.9624270595 1.03504
-13.4637726168 1.0319
-12.9651179027 1.01308
-12.4664629173 1.01501
-11.9678076605 1.02457
-11.4691521323 0.996399
-10.9704963327 0.960468
-10.4718402616 0.967556
-9.973183919 0.958143
-9.47452730487 0.91767
-8.97587041916 0.854439
-8.47721326185 0.825476
-7.9785558329 0.765012
-7.47989813228 0.706446
-6.98124015995 0.687911
-6.48258191589 0.686244
-5.98392340006 0.665942
-5.48526461243 0.61622
-4.98660555296 0.548927
-4.48794622162 0.502119
-3.98928661838 0.470457
-3.49062674321 0.444707
-2.99196659606 0.41221
-2.49330617691 0.383889
-1.99464548573 0.384901
-1.49598452248 0.408642
-0.997323287135 0.471862
-0.498661779651 0.472232
0 0.368477
0.498662051851 0.274952
0.997324375935 0.198535
1.49598697229 0.190783
1.99464984093 0.232876
2.49331298192 0.306021
2.99197639526 0.356088
3.49064008101 0.253738
3.98930403918 0.115162
4.48796826982 0
4.98663277296 0.0652986
5.48529754863 0.141123
5.98396259686 0.202499
6.48262791768 0.262487
6.98129351114 0.330393
7.47995937726 0.397464
7.97862551607 0.461747
8.47729192761 0.514006
8.97595861191 0.596569
9.474625569 0.725479
9.97329279892 0.801917
10.4719603017 0.848004
10.9706280774 0.969986
11.469296126 1.0917
11.9679644475 1.09309
12.4666330421 1.08223
12.9653019097 1.07723
13.4639710503 1.10984
13.962640464 1.18119
14.4613101508 1.242
14.9599801108 1.29662
15.458650344 1.33809
15.9573208504 1.37617
16.4559916301 1.41161
16.954662683 1.43075
17.4533340093 1.43577
17.9520056089 1.42906
18.4506774819 1.42521
18.9493496284 1.43394
19.4480220482 1.43889
19.9466947416 1.4271
20.4453677085 1.43736
20.9440409489 1.53983
21.4427144629 1.53515
21.9413882505 1.51872
22.4400623118 1.5154
22.9387366467 1.49118
23.4374112554 1.43547
23.9360861378 1.40669
24.434761294 1.39483
24.933436724 1.35051
