-24.9330405261 1.05237
-24.4343864077 0.984409
-23.9357320167 0.949532
-23.437077353 0.923514
-22.9384224167 0.944947
-22.4397672076 0.921262
-21.9411117258 0.858027
-21.4424559712 0.83485
-20.9437999437 0.845188
-20.4451436435 0.844681
-19.9464870703 0.833915
-19.4478302242 0.789316
-18.9491731052 0.77416
-18.4505157132 0.770631
-17.9518580482 0.742157
-17.4532001101 0.716798
-16.954541899 0.636523
-16.4558834147 0.586764
-15.9572246573 0.570757
-15.4585656267 0.534988
-14.9599063229 0.492567
-14.4612467458 0.460528
-13.9625868955 0.454016
-13.4639267718 0.462324
-12.9652663748 0.470027
-12.4666057045 0.46713
-11.9679447607 0.511778
-11.4692835434 0.556962
-10.9706220527 0.562057
-10.4719602885 0.559597
-9.97329825073 0.571906
-9.47463593938 0.559849
-8.97597335442 0.546314
-8.47731049582 0.527154
-7.97864736353 0.502955
-7.47998395754 0.484442
-6.98132027781 0.476463
-6.4826563243 0.465905
-5.98399209697 0.456279
-5.48532759581 0.468649
-4.98666282077 0.429906
-4.48799777183 0.366994
-3.98933244894 0.31954
-3.49066685208 0.277945
-2.99200098121 0.24471
-2.4933348363 0.21913
-1.99466841732 0.193367
-1.49600172423 0.140887
-0.997334757002 0.105454
-0.498667515604 0.0715631
0 0.04457
0.49866778984 0.0196586
0.997335853952 0.00562435
1.49600419237 0
1.99467280512 0.0134852
2.49334169224 0.0330734
2.99201085376 0.0388304
3.49068028972 0.037013
3.98935000014 0.0568624
4.48801998507 0.0776804
4.98669024452 0.104383
5.48536077855 0.118666
5.98403158717 0.109457
6.48270267043 0.110638
6.98137402835 0.163332
7.48004566097 0.268061
7.97871756832 0.403687
8.47738975043 0.485557
8.97606220734 0.58249
9.47473493907 0.705394
9.97340794567 0.846692
10.4720812272 0.910499
10.9707547836 0.846031
11.469428615 0.748302
11.9681027213 0.65738
12.4667771027 0.558138
12.9654517592 0.466937
13.4641266907 0.394286
13.9628018974 0.362798
14.4614773792 0.32096
14.9601531362 0.295124
15.4588291685 0.294145
15.957505476 0.321246
16.4561820588 0.35483
16.9548589169 0.361876
17.4535360503 0.368233
17.9522134591 0.411283
18.4508911434 0.477125
18.9495691031 0.529745
19.4482473383 0.557126
19.946925849 0.558025
20.4456046352 0.543737
20.9442836971 0.525216
21.4429630345 0.525368
21.9416426476 0.551452
22.4403225364 0.572152
22.9390027009 0.634478
23.4376831411 0.753847
23.9363638571 0.955602
24.4350448489 1.21157
24.9337261166 1.37799
