-24.9475321766 0.830648
-24.4485876516 0.812413
-23.9496428773 0.798157
-23.4506978536 0.787691
-22.9517525805 0.78011
-22.452807058 0.75884
-21.9538612862 0.726437
-21.4549152648 0.688575
-20.955968994 0.643533
-20.4570224737 0.607668
-19.9580757039 0.570338
-19.4591286845 0.536973
-18.9601814155 0.496071
-18.4612338969 0.484982
-17.9622861287 0.49022
-17.4633381109 0.461853
-16.9643898433 0.418428
-16.4654413261 0.368804
-15.9664925591 0.319415
-15.4675435423 0.294224
-14.9685942758 0.290716
-14.4696447595 0.290081
-13.9706949933 0.248977
-13.4717449772 0.227028
-12.9727947113 0.227327
-12.4738441954 0.235993
-11.9748934296 0.238751
-11.4759424138 0.249777
-10.976991148 0.243247
-10.4780396323 0.235529
-9.97908786642 0.224622
-9.48013585051 0.202809
-8.9811835845 0.167271
-8.48223106837 0.142731
-7.98327830208 0.130942
-7.48432528563 0.126504
-6.98537201896 0.112137
-6.48641850207 0.101381
-5.98746473493 0.104242
-5.48851071751 0.111811
-4.98955644978 0.107903
-4.49060193172 0.0787626
-3.9916471633 0.0499473
-3.4926921445 0.0434686
-2.99373687529 0.0491542
-2.49478135565 0.050704
-1.99582558554 0.0376539
-1.49686956495 0.0161222
-0.997913293848 0
-0.498956772206 0.00328971
0 0.00266896
0.498957022795 0.00425069
0.997914296205 0.0126117
1.49687182026 0.0206353
1.99582959498 0.0252126
2.49478762039 0.0289147
2.99374589652 0.0316643
3.49270442339 0.0288838
3.99166320104 0.0247983
4.49062222948 0.0514754
4.98958150874 0.0947127
5.48854103885 0.141424
5.98750081983 0.177029
6.48646085171 0.22035
6.98542113451 0.286817
7.48438166827 0.378335
7.983342453 0.463725
8.48230348873 0.522756
8.98126477549 0.549612
9.4802263133 0.56695
9.9791881022 0.58229
10.4781501422 0.581056
10.9771124333 0.599994
11.4760749756 0.637761
11.9750377691 0.664465
12.4740008137 0.672933
12.9729641096 0.660247
13.4719276568 0.632909
13.9708914552 0.599803
14.469855505 0.573912
14.9688198061 0.563489
15.4677843585 0.547248
15.9667491624 0.531128
16.4657142176 0.51806
16.9646795243 0.498767
17.4636450824 0.49024
17.9626108921 0.491336
18.4615769532 0.49768
18.9605432659 0.499094
19.4595098302 0.493452
19.958476646 0.490123
20.4574437135 0.496153
20.9564110326 0.519736
21.4553786033 0.54956
21.9543464258 0.576191
22.4533145 0.647396
22.9522828259 0.753656
23.4512514036 0.818714
23.9502202331 0.886982
24.4491893144 0.950594
24.9481586476 0.982593
