-24.9960410138 0.146692
-24.4961238521 0.15435
-23.9962065411 0.169936
-23.4962890808 0.179711
-22.9963714713 0.192393
-22.4964537124 0.230575
-21.9965358041 0.263312
-21.4966177466 0.305798
-20.9966995398 0.362378
-20.4967811837 0.412052
-19.9968626782 0.435131
-19.4969440235 0.443162
-18.9970252194 0.445205
-18.497106266 0.436791
-17.9971871633 0.453666
-17.4972679112 0.470053
-16.9973485099 0.470018
-16.4974289592 0.469536
-15.9975092591 0.462553
-15.4975894098 0.462743
-14.9976694111 0.453853
-14.497749263 0.460532
-13.9978289657 0.476421
-13.497908519 0.530859
-12.9979879229 0.562482
-12.4980671775 0.573264
-11.9981462828 0.570746
-11.4982252387 0.541945
-10.9983040452 0.491923
-10.4983827025 0.468719
-9.99846121031 0.466287
-9.49853956881 0.510175
-8.99861777794 0.539549
-8.49869583773 0.522547
-7.99877374814 0.465399
-7.4988515092 0.395399
-6.99892912089 0.327847
-6.49900658321 0.241639
-5.99908389616 0.129876
-5.49916105974 0.0415318
-4.99923807394 0.0161903
-4.49931493877 0
-3.99939165422 0.031954
-3.49946822029 0.0923858
-2.99954463698 0.0935669
-2.49962090429 0.108133
-1.99969702221 0.137082
-1.49977299074 0.167976
-0.999848809887 0.185842
-0.49992447964 0.202244
0 0.234219
0.499924629037 0.307957
0.999849407469 0.440451
1.4997743353 0.562837
1.99969941253 0.652248
2.49962463917 0.722042
2.99955001521 0.781652
3.49947554065 0.805649
3.99940121551 0.877487
4.49932703977 0.957434
4.99925301345 1.02804
5.49917913654 1.05784
5.99910540905 1.06472
6.49903183098 1.05609
6.99895840232 1.00971
7.49888512309 0.965667
7.99881199328 0.944367
8.49873901289 0.943697
8.99866618193 0.960824
9.4985935004 0.974173
9.99852096831 0.980148
10.4984485856 0.953348
10.9983763524 0.911992
11.4983042686 0.883593
11.9982323343 0.826158
12.4981605493 0.877257
12.9980889139 0.922464
13.4980174278 0.950282
13.9979460913 1.01144
14.4978749041 1.08585
14.9978038664 1.14916
15.4977329782 1.21333
15.9976622394 1.21616
16.4975916501 1.22315
16.9975212102 1.26291
17.4974509198 1.26645
17.9973807788 1.21054
18.4973107873 1.16284
18.9972409453 1.04617
19.4971712527 0.866102
19.9971017096 0.658398
20.497032316 0.485555
20.9969630719 0.416621
21.4968939772 0.386986
21.996825032 0.360285
22.4967562362 0.342394
22.99668759 0.341277
23.4966190932 0.346665
23.9965507459 0.352696
24.4964825481 0.337432
24.9964144997 0.333421
