-24.9335475948 0.701528
-24.4348833979 0.668011
-23.9362189258 0.636741
-23.4375541785 0.611197
-22.938889156 0.610737
-22.4402238581 0.620381
-21.941558285 0.635023
-21.4428924365 0.648087
-20.9442263126 0.647394
-20.4455599132 0.639825
-19.9468932385 0.675528
-19.4482262882 0.70762
-18.9495590624 0.708285
-18.4508915611 0.688605
-17.9522237842 0.662
-17.4535557317 0.637985
-16.9548874035 0.595828
-16.4562187997 0.542165
-15.9575499201 0.502446
-15.4588807648 0.475069
-14.9602113337 0.441211
-14.4615416268 0.403449
-13.962871644 0.370832
-13.4642013854 0.342352
-12.9655308508 0.309396
-12.4668600404 0.25742
-11.9681889539 0.255644
-11.4695175914 0.247925
-10.9708459529 0.237798
-10.4721740383 0.221206
-9.97350184757 0.211337
-9.47482938072 0.195013
-8.97615663769 0.192597
-8.47748361846 0.18416
-7.97881032298 0.181994
-7.48013675123 0.185795
-6.98146290318 0.228926
-6.48278877879 0.263475
-5.98411437803 0.204818
-5.48543970086 0.123921
-4.98676474726 0.0916145
-4.48808951718 0.0871152
-3.98941401061 0.0599517
-3.4907382275 0.0429689
-2.99206216782 0.0265718
-2.49338583154 0.0141222
-1.99470921863 0.0102144
-1.49603232905 0.0202252
-0.997355162777 0.027899
-0.498677719771 0.0317228
0 0.017045
0.498677996566 0
0.997356269962 0.00821058
1.49603482022 0.0658583
1.99471364737 0.136024
2.49339275145 0.18923
2.99207213249 0.199631
3.49075179052 0.222349
3.98943172558 0.337472
4.48811193769 0.416027
4.98679242689 0.445745
5.48547319322 0.468533
5.9841542367 0.467011
6.48283555737 0.437965
6.98151715526 0.443317
7.4801990304 0.477917
7.97888118283 0.478149
8.47756361257 0.476716
8.97624631967 0.515055
9.47492930415 0.594499
9.97361256605 0.645391
10.4722961054 0.652974
10.9709799222 0.607441
11.4696640166 0.625548
11.9683483884 0.661272
12.4670330379 0.724663
12.965717965 0.782332
13.4644031697 0.82235
13.9630886521 0.840485
14.4617744122 0.820934
14.96046045 0.771339
15.4591467656 0.70859
15.9578333591 0.646012
16.4565202303 0.603541
16.9552073794 0.5632
17.4538948065 0.539069
17.9525825114 0.557676
18.4512704944 0.542412
18.9499587553 0.424285
19.4486472943 0.339755
19.9473361113 0.33153
20.4460252064 0.371711
20.9447145797 0.354357
21.4434042311 0.304057
21.9420941607 0.293002
22.4407843686 0.280278
22.9394748547 0.173716
23.4381656191 0.109434
23.9368566618 0.0897528
24.4355479829 0.0874154
24.9342395823 0.0988723
