-24.9330062628 0.510796
-24.4343528243 0.510607
-23.9356991133 0.518485
-23.4370451299 0.527959
-22.9383908741 0.53382
-22.4397363457 0.545244
-21.9410815449 0.569924
-21.4424264714 0.601113
-20.9437711254 0.619626
-20.4451155067 0.634138
-19.9464596154 0.644421
-19.4478034514 0.657548
-18.9491470147 0.654649
-18.4504903052 0.641535
-17.9518333229 0.636573
-17.4531760677 0.644201
-16.9545185398 0.65078
-16.4558607389 0.662626
-15.9572026651 0.673006
-15.4585443183 0.681779
-14.9598856986 0.686267
-14.4612268058 0.699225
-13.9625676399 0.700084
-13.463908201 0.689312
-12.9652484889 0.675377
-12.4665885037 0.667881
-11.9679282453 0.649166
-11.4692677137 0.63424
-10.9706069088 0.633489
-10.4719458306 0.623331
-9.97328447907 0.612658
-9.4746228542 0.597377
-8.97596095595 0.568671
-8.47729878427 0.56606
-7.97863633913 0.559916
-7.47997362051 0.580077
-6.98131062836 0.589048
-6.48264736266 0.543467
-5.98398382337 0.512722
-5.48532001046 0.529226
-4.98665592389 0.561759
-4.48799156364 0.622297
-3.98932692967 0.652469
-3.49066202194 0.661977
-2.99199684043 0.646744
-2.4933313851 0.551187
-1.99466565591 0.394794
-1.49599965285 0.283215
-0.997333375859 0.189874
-0.498666824921 0.121334
0 0.129788
0.498667098938 0.114839
0.997334471926 0.117182
1.496002119 0.125179
1.99467004018 0.134216
2.49333823552 0.137475
2.99200670503 0.128413
3.49067544876 0.137094
3.98934446674 0.17165
4.488013759 0.202854
4.98668332557 0.244033
5.48535316648 0.334411
5.98402328177 0.449672
6.48269367148 0.572628
6.98136433563 0.676477
7.48003527426 0.713094
7.97870648739 0.720646
8.47737797507 0.69405
8.97604973733 0.68466
9.47472177419 0.717576
9.97339408569 0.753077
10.4720666719 0.768044
10.9707395328 0.767259
11.4694126684 0.738242
11.9680860788 0.69664
12.466759764 0.676271
12.965433724 0.678922
13.4641079589 0.706395
13.9627824687 0.754478
14.4614572535 0.851943
14.9601323132 0.981594
15.4588076479 1.07595
15.9574832577 1.16736
16.4561591425 1.2634
16.9548353024 1.34684
17.4535117375 1.39122
17.9521884477 1.37602
18.4508654331 1.34767
18.9495426937 1.29959
19.4482202296 1.19146
19.9468980409 1.01676
20.4455761274 0.826334
20.9442544893 0.624174
21.4429331266 0.472212
21.9416120393 0.310253
22.4402912274 0.121091
22.9389706911 0
23.4376504303 0.0423985
23.936330445 0.077607
24.4350107354 0.128166
24.9336913013 0.264622
