-24.9317945242 0.433699
-24.4331653894 0.42937
-23.9345359794 0.447512
-23.4359062942 0.457618
-22.9372763337 0.466422
-22.4386460979 0.452579
-21.9400155868 0.444652
-21.4413848003 0.399016
-20.9427537384 0.357983
-20.444122401 0.309368
-19.9454907882 0.266343
-19.4468588999 0.238318
-18.948226736 0.211878
-18.4495942966 0.196141
-17.9509615815 0.184369
-17.4523285908 0.194347
-16.9536953244 0.21904
-16.4550617824 0.21352
-15.9564279645 0.218493
-15.4577938709 0.231096
-14.9591595015 0.241389
-14.4605248563 0.199693
-13.9618899351 0.167147
-13.4632547381 0.161844
-12.9646192651 0.159662
-12.4659835161 0.157325
-11.9673474911 0.154411
-11.4687111901 0.155696
-10.970074613 0.164062
-10.4714377597 0.171358
-9.97280063036 0.169504
-9.47416322481 0.161351
-8.97552554303 0.160243
-8.47688758501 0.16923
-7.97824935071 0.163288
-7.47961084009 0.157876
-6.98097205311 0.137385
-6.48233298976 0.088548
-5.98369364999 0.0417096
-5.48505403377 0.0191314
-4.98641414107 0.012856
-4.48777397184 0.0079533
-3.98913352607 0.00522667
-3.49049280371 0.0150429
-2.99185180473 0.0280488
-2.4932105291 0.022513
-1.99456897679 0.0209627
-1.49592714775 0.0473576
-0.997285041966 0.0712192
-0.498642659393 0.0600414
0 0.0487451
0.498642936245 0.0244417
0.997286149379 0.00981575
1.49592963943 0.00174448
1.99457340644 0
2.49321745043 0.00395145
2.99186177145 0.0154471
3.49050636952 0.0371638
3.98915124467 0.0984918
4.48779639695 0.178094
4.98644182638 0.266905
5.485087533 0.339891
5.98373351684 0.388914
6.48237977794 0.431777
6.98102631633 0.437296
7.47967313203 0.414929
7.9783202251 0.38855
8.47696759555 0.349517
8.97561524342 0.331501
9.47426316875 0.359408
9.97291137156 0.396465
10.4715598519 0.429371
10.9702086098 0.470047
11.4688576453 0.499574
11.9675069584 0.517937
12.4661565492 0.522047
12.9648064176 0.525046
13.4634565638 0.531229
13.9621069877 0.522702
14.4607576894 0.495982
14.959408669 0.473738
15.4580599264 0.463054
15.9567114616 0.456418
16.4553632749 0.466038
16.954015366 0.478457
17.4526677352 0.496806
17.9513203823 0.510632
18.4499733076 0.511853
18.9486265109 0.510598
19.4472799923 0.504089
19.9459337519 0.501924
20.4445877897 0.507904
20.9432421057 0.502263
21.4418967 0.489217
21.9405515725 0.472237
22.4392067234 0.450218
22.9378621526 0.427086
23.4365178602 0.418771
23.9351738463 0.413123
24.4338301108 0.400498
24.9324866537 0.391024
