-24.9504927166 0.52481
-24.4514888203 0.547973
-23.9524846812 0.537289
-23.4534802993 0.533545
-22.9544756745 0.542637
-22.4554708069 0.549011
-21.9564656964 0.576669
-21.457460343 0.58996
-20.9584547466 0.638369
-20.4594489073 0.71846
-19.960442825 0.791808
-19.4614364997 0.788676
-18.9624299313 0.762239
-18.4634231199 0.751235
-17.9644160653 0.751817
-17.4654087677 0.722227
-16.966401227 0.685003
-16.467393443 0.666097
-15.9683854159 0.673736
-15.4693771456 0.692044
-14.970368632 0.632172
-14.4713598752 0.569395
-13.9723508751 0.551044
-13.4733416317 0.518438
-12.974332145 0.525049
-12.4753224149 0.523008
-11.9763124414 0.516953
-11.4773022245 0.485053
-10.9782917642 0.4373
-10.4792810604 0.398872
-9.9802701132 0.365376
-9.48125892245 0.345135
-8.98224748817 0.326339
-8.48323581034 0.320523
-7.98422388893 0.362117
-7.48521172392 0.40961
-6.98619931529 0.423404
-6.487186663 0.414742
-5.98817376704 0.457496
-5.48916062738 0.493352
-4.990147244 0.492261
-4.49113361687 0.449175
-3.99211974596 0.38191
-3.49310563126 0.286812
-2.99409127274 0.188078
-2.49507667037 0.129157
-1.99606182413 0.0922161
-1.497046734 0.0971577
-0.998031399953 0.12168
-0.49901582196 0.114834
0 0.0722105
0.499016065953 0.0256149
0.998032375919 0
1.49704892993 0.00926881
1.996065728 0.0925185
2.49508277016 0.224641
2.99410005644 0.301549
3.49311758685 0.36417
3.99213536142 0.480058
4.49115338018 0.584148
4.99017164315 0.610268
5.48919015036 0.555544
5.98820890182 0.569489
6.48722789757 0.689582
6.98624713763 0.828934
7.48526662201 0.952629
7.98428635076 1.02363
8.48330632388 1.02216
8.98232654141 0.963193
9.48134700336 0.898349
9.98036770977 0.920023
10.4793886607 0.98651
10.978409856 1.02755
11.477431296 1.1044
11.9764529804 1.27949
12.4754749095 1.41061
12.9744970831 1.49113
13.4735195013 1.53654
13.9725421643 1.56679
14.4715650718 1.5936
14.9705882241 1.62586
15.4696116211 1.66771
15.9686352628 1.68262
16.4676591493 1.66078
16.9666832806 1.61884
17.4657076567 1.55511
17.9647322777 1.48592
18.4637571435 1.40602
18.9627822542 1.30286
19.4618076098 1.2762
19.9608332103 1.30557
20.4598590558 1.36029
20.9588851463 1.40375
21.4579114818 1.41441
21.9569380623 1.4132
22.4559648879 1.43631
22.9549919586 1.48184
23.4540192744 1.5616
23.9530468353 1.65137
24.4520746413 1.70257
24.9511026926 1.70265
