-24.9327604502 1.58973
-24.434111884 1.55618
-23.9354630471 1.54827
-23.4368139396 1.50105
-22.9381645615 1.45326
-22.4395149126 1.38647
-21.9408649931 1.3043
-21.4422148027 1.23139
-20.9435643416 1.20128
-20.4449136096 1.18158
-19.9462626067 1.17089
-19.447611333 1.14787
-18.9489597883 1.14086
-18.4503079726 1.11978
-17.951655886 1.08968
-17.4530035283 1.0851
-16.9543508996 1.0846
-16.4556979997 1.06224
-15.9570448287 1.02361
-15.4583913866 1.01439
-14.9597376732 1.02006
-14.4610836886 1.07383
-13.9624294328 1.10981
-13.4637749056 1.07947
-12.9651201071 1.0213
-12.4664650373 0.924316
-11.967809696 0.861944
-11.4691540834 0.813016
-10.9704981992 0.789643
-10.4718420436 0.763238
-9.97318561638 0.720601
-9.47452891763 0.653108
-8.97587194729 0.612934
-8.47721470531 0.582087
-7.97855719167 0.537111
-7.47989940634 0.475439
-6.98124134927 0.401503
-6.48258302043 0.344278
-5.9839244198 0.3162
-5.48526554734 0.299739
-4.98660640302 0.31054
-4.4879469868 0.331049
-3.98928729865 0.317192
-3.49062733853 0.290697
-2.99196710642 0.267102
-2.49330660229 0.232215
-1.99464582609 0.197974
-1.49598477779 0.177318
-0.997323457366 0.16181
-0.49866186478 0.155545
0 0.142661
0.498662137007 0.131926
0.997324546275 0.130535
1.49598722784 0.106386
1.99465018172 0.0923278
2.49331340797 0.0877982
2.99197690661 0.10173
3.49064067768 0.120576
3.9893047212 0.122371
4.48796903722 0.0812614
4.98663362576 0.0316644
5.48529848685 0.0118908
5.98396362054 0.0140177
6.48262902685 0.00352672
6.98129470582 0
7.47996065748 0.0789535
7.97862688186 0.212993
8.47729337899 0.336124
8.97596014891 0.439584
9.47462719166 0.574264
9.97329450725 0.742459
10.4719620957 0.890331
10.9706299571 1.00173
11.4692980915 1.09684
11.9679664988 1.16989
12.4666351792 1.24891
12.9653041326 1.31306
13.4639733591 1.35631
13.9626428587 1.41376
14.4613126315 1.47196
14.9599826774 1.44879
15.4586529966 1.42881
15.957323589 1.42152
16.4559944547 1.42498
16.9546655937 1.44984
17.4533370061 1.46339
17.9520086918 1.39982
18.4506806509 1.35006
18.9493528835 1.33968
19.4480253896 1.36478
19.9466981692 1.38368
20.4453712223 1.3299
20.944044549 1.27554
21.4427181493 1.25473
21.9413920233 1.25119
22.4400661709 1.20087
22.9387405922 1.20746
23.4374152873 1.23382
23.9360902562 1.21486
24.4347654988 1.21065
24.9334410153 1.20518
