-24.9330215279 0.821776
-24.4343677865 0.832754
-23.9357137726 0.84668
-23.4370594861 0.889734
-22.9384049271 0.958833
-22.4397500954 1.02764
-21.9410949912 1.07252
-21.4424396143 1.09391
-20.9437839647 1.10479
-20.4451280423 1.10964
-19.9464718472 1.08913
-19.4478153793 1.05082
-18.9491586386 1.02581
-18.450501625 0.988323
-17.9518443386 0.970204
-17.4531867792 0.963884
-16.9545289468 0.942054
-16.4558708415 0.934114
-15.9572124631 0.928079
-15.4585538117 0.932041
-14.9598948872 0.939152
-14.4612356895 0.933455
-13.9625762187 0.912885
-13.4639164747 0.888586
-12.9652564575 0.859618
-12.4665961671 0.891591
-11.9679356033 0.950066
-11.4692747662 0.976602
-10.9706136558 0.994145
-10.4719522719 0.980656
-9.97329061468 0.98118
-9.47462868396 0.999472
-8.97596647977 1.02922
-8.47730400204 1.04737
-7.97864125077 1.02192
-7.47997822591 0.947104
-6.98131492742 0.885352
-6.48265135528 0.841645
-5.98398750946 0.776644
-5.48532338992 0.704556
-4.98665899662 0.641373
-4.48799432954 0.582975
-3.98932938864 0.533914
-3.49066417388 0.473283
-2.99199868525 0.424527
-2.49333292269 0.38586
-1.99466688619 0.336892
-1.4960005757 0.257802
-0.997333991191 0.171003
-0.498667132636 0.0738922
0 0.0216234
0.498667406752 0.0139168
0.997335087652 0.00336839
1.49600304273 0
1.99467127203 0.00575132
2.49333977557 0.0109921
2.99200855339 0.0123055
3.49067760553 0.014724
3.989346932 0.0165977
4.48801653286 0.0203958
4.98668640813 0.0238319
5.48535655784 0.016235
5.98402698203 0.0190987
6.48269768073 0.0481809
6.98136865397 0.110484
7.48003990179 0.21254
7.97871142422 0.339771
8.47738322128 0.454689
8.97605529302 0.527908
9.47472763947 0.589361
9.97340026065 0.654215
10.4720731566 0.687126
10.9707463274 0.699659
11.469419773 0.658776
11.9680934934 0.558099
12.4667674888 0.461323
12.9654417591 0.36974
13.4641163044 0.318343
13.9627911247 0.361326
14.46146622 0.361852
14.9601415904 0.387133
15.4588172359 0.40481
15.9574931565 0.410509
16.4561693523 0.402543
16.9548458232 0.391833
17.4535225694 0.404459
17.9521995909 0.444853
18.4508768877 0.560905
18.9495544598 0.708675
19.4482323072 0.80864
19.9469104301 0.876496
20.4455888283 0.898075
20.9442675021 0.899516
21.4429464513 0.866057
21.9416256761 0.838794
22.4403051764 0.835919
22.9389849523 0.841375
23.4376650038 0.859629
23.936345331 0.894292
24.4350259338 0.916419
24.9337068124 0.924659
