-24.9505294803 0
-24.4515248539 0.244705
-23.9525199846 0.444292
-23.4535148722 0.555649
-22.9545095167 0.611427
-22.4555039182 0.645027
-21.9564980766 0.65006
-21.4574919918 0.611669
-20.9584856639 0.560146
-20.4594790928 0.535811
-19.9604722786 0.527923
-19.461465221 0.535146
-18.9624579203 0.516467
-18.4634503762 0.483835
-17.9644425889 0.47638
-17.4654345582 0.491737
-16.9664262842 0.510079
-16.4674177668 0.52929
-15.968409006 0.527879
-15.4694000018 0.514602
-14.9703907542 0.495078
-14.471381263 0.472896
-13.9723715284 0.463754
-13.4733615503 0.461718
-12.9743513286 0.48717
-12.4753408633 0.512172
-11.9763301544 0.512079
-11.477319202 0.468817
-10.9783080058 0.404716
-10.479296566 0.364856
-9.98028488257 0.395843
-9.48127295537 0.406384
-8.98226078443 0.414675
-8.48324836973 0.447059
-7.98423571124 0.462311
-7.48522280893 0.484808
-6.98620966278 0.513
-6.48719627277 0.520037
-5.98818263887 0.531819
-5.48916876106 0.575999
-4.99015463932 0.554261
-4.49114027361 0.526475
-3.99212566392 0.500994
-3.49311081022 0.478763
-2.99409571248 0.431872
-2.49508037069 0.372701
-1.99606478481 0.352422
-1.49704895483 0.348184
-0.998032880718 0.335089
-0.499016562449 0.305431
0 0.231953
0.499016806653 0.172756
0.998033857535 0.171334
1.49705115267 0.169678
1.99606869208 0.168426
2.49508647579 0.182211
2.99410450383 0.217342
3.49312277622 0.354868
3.99214129298 0.517496
4.49116005415 0.709601
4.99017905973 0.918367
5.48919830976 1.08781
5.98821780427 1.23195
6.48723754326 1.3479
6.98625752678 1.43194
7.48527775484 1.47579
7.98429822747 1.50315
8.4833189447 1.48855
8.98233990654 1.44503
9.48136111302 1.38649
9.98038256416 1.32454
10.47940426 1.29372
10.9784262005 1.29289
11.4774483858 1.2983
11.9764708159 1.35548
12.4754934907 1.3646
12.9745164104 1.3672
13.4735395748 1.42079
13.9725629842 1.4842
14.4715866384 1.4021
14.9706105375 1.25542
15.4696346816 1.10295
15.9686590706 1.04948
16.4676837046 1.12323
16.9667085836 1.1804
17.4657337076 1.22445
17.9647590767 1.27394
18.4637846908 1.34554
18.9628105501 1.40707
19.4618366545 1.43908
19.960863004 1.46493
20.4598895987 1.47036
20.9589164386 1.44344
21.4579435237 1.41621
21.956970854 1.41261
22.4559984297 1.38936
22.9550262506 1.37318
23.4540543168 1.34156
23.9530826284 1.28353
24.4521111853 1.2348
24.9511399876 1.17737
