-24.9646810352 1.14268
-24.4653927669 1.13387
-23.9661042803 1.12335
-23.4668155756 1.11246
-22.9675266526 1.15177
-22.4682375115 1.14063
-21.968948152 1.12686
-21.4696585743 1.08618
-20.9703687783 1.05982
-20.471078764 1.03718
-19.9717885314 1.01591
-19.4724980804 0.985017
-18.9732074111 0.928833
-18.4739165234 0.863197
-17.9746254173 0.82086
-17.4753340928 0.783698
-16.9760425499 0.729735
-16.4767507885 0.689817
-15.9774588086 0.693397
-15.4781666103 0.701952
-14.9788741935 0.68345
-14.4795815581 0.650288
-13.9802887043 0.601063
-13.4809956318 0.558585
-12.9817023408 0.513718
-12.4824088312 0.450452
-11.9831151031 0.376906
-11.4838211562 0.338861
-10.9845269908 0.308299
-10.4852326067 0.297808
-9.98593800392 0.300948
-9.48664318245 0.298785
-8.98734814227 0.299924
-8.48805288337 0.284023
-7.98875740572 0.267239
-7.48946170932 0.258275
-6.99016579413 0.257174
-6.49086966014 0.245268
-5.99157330735 0.237208
-5.49227673572 0.233273
-4.99297994525 0.216188
-4.4936829359 0.201821
-3.99438570768 0.176821
-3.49508826055 0.14889
-2.99579059451 0.142338
-2.49649270953 0.137797
-1.9971946056 0.126059
-1.4978962827 0.113214
-0.99859774081 0.112518
-0.499298979916 0.097526
0 0.103267
0.499299198956 0.123632
0.998598616968 0.120783
1.49789825405 0.112465
1.99719811023 0.113783
2.49649818552 0.120348
2.99579847993 0.109707
3.49509899349 0.0841513
3.99439972621 0.0568458
4.49370067811 0.0278476
4.9930018492 0.00932432
5.49230323951 0
5.99160484904 0.00273583
6.49090667782 0.0153535
6.99020872587 0.0208807
7.4895109932 0.03629
7.98881347983 0.054087
8.48811618578 0.0594555
8.98741911106 0.0571375
9.48672225569 0.0543281
9.98602561969 0.0490352
10.4853292031 0.0461682
10.9846330059 0.0531805
11.4839370281 0.0880704
11.9832412697 0.124134
12.4825457308 0.147693
12.9818504114 0.221523
13.4811553115 0.349199
13.980460431 0.492031
14.4797657701 0.534497
14.9790713287 0.576842
15.4783771069 0.634255
15.9776831047 0.717583
16.4769893221 0.779748
16.976295759 0.82854
17.4756024156 0.86444
17.9749092919 0.878221
18.4742163878 0.891738
18.9735237033 0.905878
19.4728312386 0.925496
19.9721389936 0.961206
20.4714469683 0.977464
20.9707551628 0.979991
21.470063577 1.0125
21.969372211 1.04199
22.4686810648 1.083
22.9679901384 1.10803
23.4672994319 1.15709
23.9666089452 1.19082
24.4659186784 1.20347
24.9652286314 1.21317
