-24.9335161724 0.597952
-24.434852599 0.559683
-23.9361887507 0.537712
-23.4375246273 0.536819
-22.9388602289 0.540186
-22.4401955554 0.543269
-21.9415306067 0.543951
-21.4428653829 0.558142
-20.944199884 0.574575
-20.4455341098 0.582591
-19.9468680604 0.568171
-19.4482017357 0.580745
-18.9495351356 0.593947
-18.4508682602 0.614729
-17.9522011095 0.614273
-17.4535336833 0.617251
-16.9548659817 0.618217
-16.4561980046 0.607585
-15.9575297519 0.587591
-15.4588612238 0.574385
-14.96019242 0.583663
-14.4615233406 0.556544
-13.9628539856 0.515103
-13.4641843549 0.498797
-12.9655144485 0.479949
-12.4668442664 0.46193
-11.9681738085 0.432634
-11.4695030748 0.422581
-10.9708320652 0.392412
-10.4721607797 0.355431
-9.97348921837 0.303604
-9.47481738107 0.243076
-8.9761452678 0.193158
-8.47747287852 0.163579
-7.97880021321 0.146598
-7.48012727182 0.136564
-6.98145405432 0.104817
-6.48278056069 0.078519
-5.98410679088 0.0980383
-5.48543274487 0.063752
-4.98675842263 0.0133733
-4.48808382412 0.00884373
-3.9894089493 0.0071827
-3.49073379815 0
-2.99205837064 0.00108464
-2.49338266672 0.012944
-1.99470668637 0.0151663
-1.49603042956 0.0181436
-0.997353896248 0.0329492
-0.498677086406 0.099837
0 0.19227
0.498677363001 0.241524
0.997355002631 0.2579
1.49603291892 0.229118
1.99471111191 0.175147
2.49338958162 0.152918
2.99206832809 0.133102
3.49074735136 0.144613
3.98942665144 0.15534
4.48810622839 0.153338
4.98678608222 0.14712
5.48546621298 0.136296
5.98414662069 0.128161
6.48282730539 0.134623
6.98150826711 0.184857
7.48018950589 0.263041
7.97887102174 0.330577
8.47755281472 0.377907
8.97623488485 0.410541
9.47491723216 0.480274
9.97359985668 0.563194
10.4722827585 0.614115
10.9709659375 0.676841
11.4696493939 0.812101
11.9683331276 0.901893
12.4670171387 0.970705
12.9657014272 1.0499
13.4643859931 1.11127
13.9630708366 1.14605
14.4617559575 1.15268
14.960441356 1.14534
15.459127032 1.14867
15.9578129856 1.1506
16.4564992169 1.12442
16.9551857259 1.13711
17.4538725126 1.22485
17.9525595769 1.33854
18.4512469191 1.4794
18.9499345391 1.56868
19.4486224369 1.54941
19.9473106125 1.50351
20.4459990661 1.41613
20.9446877976 1.31541
21.443376807 1.22182
21.9420660945 1.18806
22.44075566 1.08598
22.9394455035 0.97019
23.4381356251 0.927261
23.9368260249 0.926291
24.4355167028 0.958553
24.9342076589 0.975731
