-24.9327688845 1.83003
-24.4341201509 1.8166
-23.9354711467 1.78686
-23.4368218717 1.73717
-22.9381723261 1.68456
-22.4395225097 1.65274
-21.9408724225 1.63775
-21.4422220645 1.61616
-20.9435714356 1.59226
-20.4449205358 1.52347
-19.9462693651 1.4604
-19.4476179235 1.40963
-18.9489662109 1.35857
-18.4503142272 1.33005
-17.9516619725 1.30378
-17.4530094467 1.2916
-16.9543566498 1.25256
-16.4557035817 1.24541
-15.9570502425 1.26212
-15.458396632 1.26313
-14.9597427502 1.22807
-14.4610885972 1.18406
-13.9624341729 1.14263
-13.4637794772 1.10468
-12.9651245101 1.03913
-12.4664692716 0.963707
-11.9678137616 0.901093
-11.4691579801 0.843237
-10.9705019272 0.824329
-10.4718456026 0.8227
-9.97318900654 0.789772
-9.4745321388 0.723438
-8.97587499942 0.657132
-8.47721758835 0.599952
-7.97855990555 0.550781
-7.47990195101 0.492066
-6.98124372468 0.42869
-6.48258522653 0.320214
-5.98392645653 0.188919
-5.48526741464 0.111422
-4.98660810084 0.0636143
-4.48794851508 0.031866
-3.98928865734 0.025491
-3.49062852758 0.0357536
-2.99196812577 0.0663355
-2.49330745188 0.0637178
-1.99464650587 0.0361266
-1.49598528771 0.0168821
-0.997323797367 0.0327897
-0.498662034808 0.0514033
0 0.0601435
0.49866230709 0.0612405
0.997324886495 0.0529672
1.49598773825 0.0423747
1.99465086238 0.0352058
2.49331425893 0.0102593
2.99197792793 0.0149827
3.4906418694 0.0319121
3.98930608339 0.0209595
4.48797056993 0.010749
4.98663532904 0.0104712
5.48530036077 0.00956256
5.98396566514 0.0177038
6.48263124219 0.0200711
6.98129709195 0
7.47996321446 0.0326552
7.97862960974 0.110461
8.47729627783 0.20382
8.97596321877 0.2966
9.47463043258 0.361169
9.9732979193 0.426053
10.471965679 0.485188
10.9706337116 0.524326
11.4693020172 0.545818
11.9679705959 0.532608
12.4666394477 0.541417
12.9653085725 0.598305
13.4639779705 0.640763
13.9626476417 0.6358
14.4613175861 0.633649
14.9599878037 0.642222
15.4586582946 0.634549
15.9573290588 0.599507
16.4560000963 0.602132
16.9546714072 0.644095
17.4533429915 0.70516
17.9520148492 0.764573
18.4506869804 0.801873
18.9493593851 0.817774
19.4480320633 0.799305
19.9467050151 0.789892
20.4453782405 0.836569
20.9440517395 0.859587
21.4427255122 0.885223
21.9413995586 0.893187
22.4400738787 0.835926
22.9387484726 0.792506
23.4374233403 0.784719
23.9360984818 0.782145
24.4347738971 0.777501
24.9334495864 0.759599
