-24.9330100847 0.627698
-24.4343565703 0.682403
-23.9357027835 0.720214
-23.4370487242 0.759591
-22.9383943924 0.78108
-22.4397397882 0.745854
-21.9410849113 0.712628
-21.4424297619 0.693694
-20.9437743399 0.68152
-20.4451186452 0.665684
-19.9464626778 0.63983
-19.4478064377 0.614513
-18.9491499249 0.609447
-18.4504931392 0.594392
-17.9518360808 0.563158
-17.4531787495 0.558251
-16.9545211453 0.595867
-16.4558632682 0.590041
-15.9572051181 0.591797
-15.4585466951 0.598441
-14.959887999 0.595281
-14.4612290299 0.582682
-13.9625697877 0.571353
-13.4639102724 0.559255
-12.965250484 0.567625
-12.4665904223 0.584445
-11.9679300875 0.609461
-11.4692694794 0.614026
-10.970608598 0.618355
-10.4719474433 0.629697
-9.9732860152 0.650098
-9.47462431376 0.678072
-8.97596233891 0.686323
-8.47730009061 0.676057
-7.97863756882 0.662519
-7.47997477353 0.651809
-6.98131170469 0.635055
-6.48264836227 0.61014
-5.98398474623 0.575914
-5.48532085655 0.522426
-4.98665669319 0.480484
-4.48799225612 0.440295
-3.9893275453 0.40631
-3.49066256071 0.361377
-2.9919973023 0.330463
-2.49333177005 0.369364
-1.99466596393 0.402071
-1.49599988389 0.397854
-0.997333529915 0.388262
-0.498666901962 0.359331
0 0.260085
0.498667176003 0.158364
0.997334626081 0.0832243
1.49600235027 0.0331713
1.99467034859 0.00899628
2.49333862109 0
2.99200716779 0.0116917
3.49067598874 0.0225485
3.98934508395 0.0502921
4.48801445347 0.0856686
4.98668409733 0.149406
5.48535401555 0.25462
5.98402420818 0.359636
6.48269467525 0.45925
6.98136541678 0.541381
7.48003643282 0.596452
7.97870772339 0.619184
8.47737928853 0.622505
8.97605112827 0.641679
9.47472324264 0.66842
9.97339563168 0.674378
10.4720682954 0.663836
10.9707412339 0.632752
11.4694144471 0.593507
11.9680879351 0.55922
12.466761698 0.549039
12.9654357357 0.543687
13.4641100483 0.536961
13.9627846359 0.531115
14.4614594984 0.542134
14.9601346359 0.580856
15.4588100484 0.639552
15.957485736 0.704858
16.4561616986 0.71284
16.9548379364 0.706502
17.4535144494 0.847172
17.9521912375 0.991029
18.4508683009 1.1145
18.9495456395 1.23074
19.4482232534 1.27426
19.9469011427 1.19312
20.4455793072 1.04551
20.9442577472 0.929089
21.4429364626 0.876476
21.9416154534 0.747177
22.4402947197 0.57033
22.9389742616 0.525361
23.437654079 0.533211
23.9363341719 0.449867
24.4350145405 0.376386
24.9336951847 0.249813
