-24.931806773 0.825814
-24.4331773952 0.791368
-23.9345477421 0.745799
-23.4359178137 0.761079
-22.93728761 0.777654
-22.4386571308 0.782794
-21.9400263763 0.78539
-21.4413953463 0.779501
-20.9427640408 0.771111
-20.4441324597 0.763322
-19.9455006032 0.766386
-19.446868471 0.767769
-18.9482360632 0.764799
-18.4496033798 0.77003
-17.9509704207 0.788251
-17.4523371859 0.803291
-16.9537036753 0.813391
-16.4550698889 0.82706
-15.9564358267 0.832607
-15.4578014886 0.821176
-14.9591668747 0.792806
-14.4605319848 0.738779
-13.961896819 0.678419
-13.4632613771 0.628771
-12.9646256593 0.588481
-12.4659896654 0.577638
-11.9673533954 0.554705
-11.4687168492 0.537402
-10.9700800269 0.522898
-10.4714429285 0.491874
-9.97280555374 0.445553
-9.47416790277 0.377349
-8.9755299755 0.32222
-8.4768917719 0.298235
-7.97825329195 0.287078
-7.47961453559 0.281084
-6.98097550281 0.255407
-6.48233619357 0.236113
-5.98369660783 0.237214
-5.48505674556 0.247322
-4.98641660672 0.25627
-4.48777619129 0.242446
-3.98913549923 0.217953
-3.4904945305 0.224299
-2.99185328508 0.241647
-2.49321176292 0.235893
-1.994569964 0.230443
-1.49592788828 0.242427
-0.997285535732 0.254101
-0.498642906316 0.223416
0 0.197084
0.498643183248 0.150196
0.997286643462 0.132685
1.49593038068 0.111587
1.99457439492 0.0809467
2.49321868624 0.0506723
2.99186325465 0.0246075
3.4905081002 0.0115666
3.98915322291 0.00224929
4.48779862282 0
4.98644429997 0.0076275
5.48509025439 0.0392594
5.9837364861 0.0798471
6.48238299515 0.113276
6.98102978157 0.122263
7.47967684539 0.120777
7.97832418664 0.100247
8.47697180537 0.0731888
8.97561970159 0.0421455
9.47426787535 0.0435421
9.97291632667 0.0460405
10.4715650556 0.0488084
10.9702140622 0.0548057
11.4688633464 0.0679561
11.9675129083 0.0867992
12.466162748 0.0984946
12.9648128654 0.147002
13.4634632607 0.246074
13.9621139337 0.377388
14.4607648847 0.50707
14.9594161135 0.63506
15.4580676203 0.76142
15.956719405 0.876947
16.4553714678 0.971247
16.9540238086 1.04982
17.4526764274 1.10597
17.9513293244 1.15066
18.4499824994 1.18722
18.9486359527 1.23487
19.4472896841 1.27028
19.9459436938 1.26248
20.4445979818 1.24824
20.943252548 1.23259
21.4419073926 1.13839
21.9405625156 0.984939
22.4392179169 0.867124
22.9378735967 0.76683
23.436529555 0.773897
23.9351857918 0.795789
24.433842307 0.820912
24.9324991009 0.809805
