-24.9330480995 0.937692
-24.4343938308 0.883563
-23.9357392894 0.849049
-23.4370844754 0.86688
-22.9384293886 0.88554
-22.4397740291 0.895342
-21.9411183968 0.886725
-21.4424624916 0.85564
-20.9438063135 0.830988
-20.4451498626 0.815258
-19.9464931387 0.819333
-19.4478361419 0.816584
-18.9491788721 0.804334
-18.4505213292 0.770991
-17.9518635133 0.738388
-17.4532054243 0.703819
-16.9545470621 0.632615
-16.4558884268 0.56835
-15.9572295183 0.565462
-15.4585703366 0.54463
-14.9599108815 0.513786
-14.4612511532 0.495955
-13.9625911516 0.489938
-13.4639308766 0.484667
-12.9652703282 0.481143
-12.4666095064 0.449797
-11.9679484111 0.421628
-11.4692870424 0.411554
-10.9706254 0.401627
-10.4719634842 0.364775
-9.97330129473 0.326505
-9.47463883164 0.294327
-8.97597609489 0.231058
-8.47731308446 0.155469
-7.97864980029 0.108871
-7.47998624237 0.0838582
-6.98132241065 0.072344
-6.48265830511 0.0689086
-5.98399392571 0.069567
-5.48532927242 0.074034
-4.98666434521 0.0828476
-4.48799914404 0.0719632
-3.98933366888 0.0617719
-3.49066791969 0.0603048
-2.99200189645 0.0650188
-2.49333559913 0.0633687
-1.99466902768 0.0396887
-1.49600218207 0.0150782
-0.997335062279 0.00488086
-0.498667668266 0.00749841
0 0.0339954
0.498667942553 0.0260624
0.997336159425 0
1.49600465065 0.0194039
1.99467341626 0.0446851
2.49334245628 0.040613
2.99201177076 0.0360836
3.49068135972 0.0411635
3.9893512232 0.0474761
4.48802136123 0.0481683
4.98669177384 0.0540278
5.48536246106 0.0692457
5.98403342294 0.0865272
6.48270465949 0.102643
6.98137617076 0.109567
7.48004795677 0.104807
7.97872001756 0.105941
8.47739235316 0.132064
8.97606496361 0.186454
9.47473784894 0.309864
9.97341100918 0.469637
10.4720844444 0.60745
10.9707581545 0.73109
11.4694321397 0.851909
11.9681063999 0.991063
12.4667809352 1.1292
12.9654557455 1.26193
13.4641308311 1.34859
13.9628061918 1.34905
14.4614818277 1.32706
14.9601577388 1.2583
15.4588339252 1.17108
15.9575103869 1.09562
16.456187124 0.927852
16.9548641364 0.831955
17.4535414242 0.71908
17.9522189875 0.648563
18.4508968262 0.683402
18.9495749404 0.72408
19.4482533302 0.762544
19.9469319955 0.790273
20.4456109364 0.812062
20.9442901529 0.814101
21.4429696451 0.769274
21.941649413 0.672973
22.4403294567 0.592592
22.9390097761 0.555944
23.4376903712 0.591673
23.9363712422 0.64578
24.4350523891 0.651813
24.9337338119 0.655438
