-24.933025335 1.24612
-24.434371518 1.22149
-23.9357174285 1.27354
-23.4370630664 1.27729
-22.9384084318 1.25725
-22.4397535245 1.22751
-21.9410983446 1.22462
-21.442442892 1.22697
-20.9437871667 1.23454
-20.4451311686 1.24489
-19.9464748978 1.26027
-19.4478183541 1.27516
-18.9491615376 1.2898
-18.4505044482 1.2904
-17.9518470858 1.28131
-17.4531894506 1.2553
-16.9545315423 1.22696
-16.455873361 1.19312
-15.9572149067 1.13977
-15.4585561793 1.09411
-14.9598971788 1.04438
-14.4612379051 1.00769
-13.9625783583 0.989369
-13.4639185382 0.964107
-12.9652584449 0.920236
-12.4665980783 0.860358
-11.9679374383 0.790111
-11.4692765251 0.741145
-10.9706153384 0.711737
-10.4719538784 0.694601
-9.97329214486 0.693338
-9.47463013788 0.695153
-8.97596785738 0.689475
-8.47730530333 0.684126
-7.97864247571 0.681745
-7.47997937447 0.670414
-6.98131599958 0.689263
-6.48265235102 0.712144
-5.98398842875 0.723881
-5.48532423274 0.733042
-4.98665976294 0.732715
-4.48799501934 0.732297
-3.98933000189 0.72077
-3.49066471057 0.685945
-2.99199914533 0.642862
-2.49333330616 0.603582
-1.99466719301 0.535994
-1.49600080585 0.436247
-0.997334144653 0.303502
-0.49866720938 0.188991
0 0.0983095
0.498667483519 0.0181004
0.997335241211 0
1.49600327311 0.00453033
1.99467157924 0.0146797
2.49334015965 0.0201623
2.99200901436 0.0209084
3.49067814341 0.0162838
3.98934754683 0.0130264
4.48801722465 0.00973588
4.98668717691 0.0154535
5.48535740363 0.0229261
5.98402790486 0.0197605
6.48269868062 0.0163162
6.98136973095 0.0157328
7.48004105587 0.0214919
7.97871265543 0.0415194
8.47738452966 0.131595
8.97605667858 0.256383
9.47472910224 0.376332
9.97340180065 0.438977
10.4720747739 0.444276
10.9707480219 0.476688
11.4694215448 0.471348
11.9680953426 0.390599
12.4667694154 0.294204
12.965443763 0.198121
13.4641183857 0.1527
13.9627932834 0.158546
14.4614684562 0.192572
14.9601439041 0.22658
15.458819627 0.247546
15.9574956252 0.268185
16.4561718985 0.287947
16.9548484471 0.313948
17.4535252709 0.353488
17.95220237 0.385722
18.4508797444 0.43035
18.9495573941 0.518496
19.4482353193 0.629724
19.9469135199 0.739735
20.4455919959 0.856844
20.9442707474 0.955142
21.4429497744 1.03238
21.941629077 0.981812
22.4403086551 0.933844
22.9389885089 0.928459
23.4376686383 0.925393
23.9363490434 0.910318
24.4350297242 0.90094
24.9337106808 0.892628
