-24.9335056281 0.712401
-24.434842264 0.737251
-23.9361786249 0.748797
-23.4375147109 0.733419
-22.9388505219 0.751914
-22.4401860579 0.760181
-21.9415213189 0.797503
-21.4428563047 0.812595
-20.9441910155 0.825786
-20.4455254511 0.834088
-19.9468596115 0.838244
-19.4481934967 0.857565
-18.9495271066 0.939105
-18.4508604413 1.00311
-17.9521935006 1.02186
-17.4535262846 0.990538
-16.9548587932 0.938443
-16.4561910264 0.900699
-15.9575229842 0.875302
-15.4588546665 0.807732
-14.9601860732 0.736809
-14.4615172044 0.659807
-13.9628480601 0.592365
-13.4641786401 0.553384
-12.9655089445 0.492625
-12.4668389732 0.405824
-11.9681687262 0.337397
-11.4694982035 0.311904
-10.9708274049 0.253039
-10.4721563306 0.17318
-9.97348498045 0.125221
-9.47481335441 0.103922
-8.97614145246 0.0963844
-8.47746927457 0.098626
-7.97879682071 0.102423
-7.48012409085 0.108201
-6.98145108494 0.105592
-6.48277780297 0.102108
-5.98410424489 0.0767398
-5.48543041068 0.0498113
-4.9867563003 0.0248018
-4.48808191372 0.00269873
-3.9894072509 0
-3.49073231182 0.0176082
-2.99205709643 0.0264025
-2.49338160472 0.0226878
-1.99470583663 0.0384152
-1.49602979215 0.0636235
-0.997353471244 0.0676619
-0.49867687387 0.0586993
0 0.0525824
0.498677150399 0.0675615
0.997354577359 0.0796247
1.49603228091 0.0877342
1.99471026109 0.0851509
2.49338851793 0.073949
2.99206705147 0.086912
3.49074586172 0.119768
3.98942494874 0.133291
4.48810431254 0.131032
4.98678395317 0.132895
5.48546387065 0.133668
5.98414406502 0.131634
6.48282453631 0.126212
6.98150528455 0.120521
7.48018630978 0.120273
7.97886761203 0.126049
8.47754919132 0.152703
8.97623104771 0.223933
9.4749131812 0.350067
9.97359559185 0.505148
10.4722782797 0.65093
10.9709612447 0.713668
11.469644487 0.720229
11.9683280066 0.722067
12.4670118034 0.724279
12.9656958777 0.721858
13.4643802293 0.719375
13.9630648583 0.73483
14.4617497647 0.751428
14.9604349486 0.772711
15.45912041 0.801471
15.957806149 0.832608
16.4564921655 0.873134
16.9551784597 0.918494
17.4538650314 0.965259
17.9525518809 0.997677
18.451239008 1.02723
18.9499264129 1.14932
19.4486140956 1.32746
19.947302056 1.43227
20.4459902943 1.49514
20.9446788104 1.48132
21.4433676044 1.39342
21.9420566764 1.28706
22.4407460263 1.19162
22.9394356542 1.15138
23.4381255601 1.10586
23.9368157441 1.07251
24.4355062062 1.06385
24.9341969464 1.01944
