-24.9330443146 1.11899
-24.4343901211 1.07831
-23.9357356548 1.02146
-23.437080916 1.02483
-22.9384259044 1.04422
-22.43977062 1.06033
-21.9411150629 1.05709
-21.442459233 1.02197
-20.9438031302 0.989007
-20.4451467546 0.929528
-19.946490106 0.895678
-19.4478331845 0.881926
-18.9491759901 0.807654
-18.4505185226 0.743875
-17.9518607821 0.691209
-17.4532027685 0.654238
-16.9545444818 0.631074
-16.455885922 0.627372
-15.957227089 0.634589
-15.4585679828 0.653009
-14.9599086033 0.646795
-14.4612489506 0.638481
-13.9625890246 0.613994
-13.4639288252 0.584996
-12.9652683525 0.54627
-12.4666076064 0.511548
-11.9679465868 0.45845
-11.4692852938 0.40877
-10.9706237272 0.346964
-10.4719618871 0.294077
-9.97329977347 0.240401
-9.47463738622 0.229263
-8.97597472533 0.216829
-8.47731179077 0.235864
-7.97864858251 0.253524
-7.47998510051 0.247767
-6.98132134475 0.234632
-6.48265731519 0.220734
-5.98399301179 0.203002
-5.48532843453 0.172586
-4.98666358336 0.170202
-4.48799845827 0.171998
-3.98933305921 0.167423
-3.49066738615 0.167127
-2.99200143905 0.168222
-2.4933352179 0.149846
-1.99466872265 0.100799
-1.49600195326 0.0873818
-0.997334909715 0.0887623
-0.498667591972 0.096984
0 0.0691086
0.498667866235 0.03834
0.997336006763 0.0136126
1.49600442162 0
1.99467311084 0.00451124
2.49334207445 0.0108048
2.99201131249 0.0197311
3.49068082498 0.0249005
3.98935061197 0.0288854
4.48802067348 0.027715
4.98669100956 0.0254972
5.48536162022 0.0449192
5.9840325055 0.0705221
6.48270366545 0.0980202
6.98137510008 0.115491
7.48004680943 0.131763
7.97871879354 0.146613
8.47739105243 0.182709
8.97606358615 0.285278
9.47473639472 0.447359
9.97340947817 0.673488
10.4720828365 0.913107
10.9707564699 1.15094
11.4694303782 1.32371
11.9681045615 1.36753
12.4667790199 1.31978
12.9654537533 1.25064
13.4641287619 1.16254
13.9628040456 1.01633
14.4614796045 0.848682
14.9601554387 0.640072
15.458831548 0.52714
15.9575079327 0.464831
16.4561845926 0.427265
16.9548615279 0.406672
17.4535387386 0.415079
17.9522162247 0.438467
18.4508939862 0.492198
18.9495720232 0.567741
19.4482503357 0.621074
19.9469289237 0.642968
20.4456077874 0.585078
20.9442869266 0.521529
21.4429663415 0.518019
21.941646032 0.552732
22.4403259982 0.473256
22.9390062402 0.500661
23.4376867579 0.567973
23.9363675515 0.670863
24.4350486209 0.808308
24.9337299661 0.93895
