-24.9647797278 1.34798
-24.4654894981 1.26799
-23.9661990497 1.1698
-23.4669083826 1.06593
-22.9676174967 1.0241
-22.4683263921 0.961543
-21.9690350688 0.845942
-21.4697435266 0.764205
-20.9704517657 0.743054
-20.471159786 0.735004
-19.9718675874 0.71913
-19.47257517 0.741639
-18.9732825337 0.691736
-18.4739896785 0.608787
-17.9746966044 0.536217
-17.4754033114 0.52372
-16.9761097994 0.517039
-16.4768160685 0.542171
-15.9775221186 0.54662
-15.4782279498 0.562093
-14.9789335619 0.576803
-14.479638955 0.575122
-13.980344129 0.583156
-13.481049084 0.58431
-12.9817538199 0.578701
-12.4824583368 0.558174
-11.9831626345 0.515661
-11.483866713 0.472844
-10.9845705725 0.444343
-10.4852742127 0.409773
-9.98597763378 0.338605
-9.48668083566 0.26776
-8.98738381831 0.224519
-8.48808658173 0.177444
-7.9887891259 0.146572
-7.48949145079 0.177319
-6.9901935564 0.192971
-6.49089544271 0.158061
-5.99159710969 0.118011
-5.49229855733 0.0823049
-4.99299978562 0.0592455
-4.49370079453 0.0491493
-3.99440158404 0.0456158
-3.49510215415 0.0256329
-2.99580250484 0.0035858
-2.49650263607 0.00914361
-1.99720254785 0.00278483
-1.49790224015 0.0152098
-0.998601712952 0.0103097
-0.499300966241 0.00184414
0 0.00316814
0.499301185789 0.00728519
0.998602591144 0.00778198
1.49790421608 0.00695871
1.99720606062 0.00402632
2.49650812477 0.00675128
2.99581040856 0.00694161
3.495112912 0.00186672
3.99441563511 0
4.49371857791 0.00553101
4.99302174041 0.00692427
5.49232512262 0.0139097
5.99162872458 0.0589855
6.4909325463 0.183817
6.99023658778 0.314749
7.48954084906 0.408255
7.98884533014 0.47749
8.48815003104 0.537041
8.98745495179 0.604661
9.4867600924 0.674213
9.98606545288 0.761719
10.4853710333 0.837244
10.9846768335 0.897916
11.4839828538 0.936256
11.9832890939 0.964199
12.482595554 0.99688
12.9819022341 0.980976
13.4812091342 0.893292
13.9805162543 0.785171
14.4798235945 0.718908
14.9791311547 0.667223
15.4784389349 0.640537
15.9777469352 0.638407
16.4770551557 0.646769
16.9763635962 0.662141
17.4756722569 0.687149
17.9749811377 0.709388
18.4742902387 0.705494
18.9735995599 0.701153
19.4729091013 0.71228
19.9722188629 0.741594
20.4715288448 0.793187
20.9708390469 0.843957
21.4701494692 0.890903
21.9694601119 0.909674
22.4687709748 0.927647
22.9680820581 0.973593
23.4673933617 1.02578
23.9667048857 1.0685
24.4660166301 1.08631
24.9653285948 1.10163
