-24.9647632733 0.99359
-24.4654733706 0.925109
-23.9661832492 0.855177
-23.4668929093 0.801938
-22.9676023507 0.794572
-22.4683115735 0.799635
-21.9690205776 0.813611
-21.469729363 0.81569
-20.9704379297 0.808357
-20.4711462776 0.796573
-19.9718544068 0.791366
-19.4725623172 0.79258
-18.9732700089 0.795413
-18.4739774817 0.814253
-17.9746847357 0.797617
-17.4753917709 0.792003
-16.9760985873 0.787532
-16.4768051847 0.742002
-15.9775115633 0.685063
-15.478217723 0.655223
-14.9789236637 0.652312
-14.4796293855 0.640129
-13.9803348884 0.619151
-13.4810401722 0.57293
-12.9817452371 0.546935
-12.482450083 0.535184
-11.9831547098 0.523271
-11.4838591176 0.526027
-10.9845633063 0.522921
-10.485267276 0.477857
-9.98597102652 0.495893
-9.48667455795 0.453535
-8.98737787025 0.384116
-8.48808096339 0.327402
-7.98878383737 0.279106
-7.48948649217 0.194978
-6.99018892776 0.120739
-6.49089114413 0.0753336
-5.99159314126 0.0581945
-5.49229491914 0.0437377
-4.99299647775 0.0460776
-4.49369781706 0.0445628
-3.99439893707 0.030571
-3.49509983775 0.019595
-2.9958005191 0.0296531
-2.49650098108 0.0274457
-1.99720122369 0.0212542
-1.4979012469 0.00843465
-0.9986010507 0.013052
-0.499300635074 0.00877563
0 0
0.499300854536 0.0104829
0.998601928554 0.0311303
1.49790322207 0.0379267
1.9972047351 0.0376546
2.49650646766 0.0361707
2.99580841977 0.0407062
3.49511059145 0.0455101
3.99441298272 0.0514459
4.49371559358 0.0610978
4.99301842407 0.0778815
5.49232147419 0.111628
5.99162474396 0.134546
6.49092823341 0.179735
6.99023194254 0.2387
7.48953587138 0.344693
7.98884001994 0.446683
8.48814438824 0.52593
8.98744897629 0.615639
9.48675378413 0.693874
9.98605881175 0.748873
10.4853640592 0.772752
10.9846695264 0.786984
11.4839752135 0.851082
11.9832811205 0.894887
12.4825872473 0.937437
12.9818935941 0.956612
13.4812001607 0.916516
13.9805069473 0.868262
14.4798139538 0.805481
14.9791211803 0.750336
15.4784286267 0.726287
15.9777362932 0.715522
16.4770441797 0.713064
16.9763522862 0.70871
17.4756606127 0.710567
17.9749691594 0.717489
18.4742779261 0.724251
18.9735869129 0.749501
19.4728961198 0.782495
19.9722055469 0.827935
20.4715151941 0.88618
20.9708250614 0.952887
21.470135149 1.04691
21.9694454568 1.14504
22.4687559848 1.2299
22.968066733 1.31236
23.4673777015 1.37433
23.9666888902 1.39205
24.4660002993 1.40337
24.9653119286 1.39679
