-24.9318032933 1.15404
-24.4331739845 1.13426
-23.9345444005 1.08824
-23.4359145412 1.04611
-22.9372844065 1.03387
-22.4386539965 1.03147
-21.9400233111 1.01404
-21.4413923503 0.999505
-20.942761114 0.98578
-20.4441296022 0.998897
-19.9454978149 0.970036
-19.446865752 0.921018
-18.9482334135 0.865867
-18.4496007994 0.81834
-17.9509679096 0.808477
-17.4523347441 0.806613
-16.9537013029 0.804838
-16.4550675859 0.804924
-15.9564335932 0.812227
-15.4577993245 0.805151
-14.9591647801 0.776996
-14.4605299597 0.758274
-13.9618948633 0.754
-13.4632594911 0.741656
-12.9646238428 0.733695
-12.4659879184 0.73216
-11.967351718 0.699746
-11.4687152415 0.649903
-10.9700784889 0.603654
-10.4714414601 0.559899
-9.97280415508 0.474165
-9.47416657382 0.42226
-8.9755287163 0.392813
-8.47689058247 0.346585
-7.97825217229 0.321525
-7.47961348575 0.306345
-6.9809745228 0.286782
-6.48233528341 0.261245
-5.98369576755 0.265516
-5.48505597517 0.283367
-4.98641590626 0.294768
-4.48777556078 0.29345
-3.98913493868 0.259587
-3.49049403994 0.235249
-2.99185286453 0.229974
-2.49321141241 0.21876
-1.99456968355 0.177354
-1.49592767791 0.141812
-0.99728539546 0.108724
-0.498642836168 0.113768
0 0.133902
0.498643113078 0.132484
0.997286503099 0.122085
1.4959301701 0.112214
1.99457411411 0.126309
2.49321833516 0.138576
2.99186283329 0.141819
3.49050760853 0.138145
3.98915266092 0.133392
4.48779799048 0.140966
4.98644359726 0.160741
5.48508948128 0.177073
5.98373564258 0.189185
6.48238208119 0.178536
6.98102879714 0.150131
7.47967579048 0.112569
7.97832306122 0.0658993
8.47697060941 0.0408061
8.97561843508 0.033725
9.47426653827 0.0293118
9.97291491899 0.0241874
10.4715635773 0.0264334
10.9702125132 0.0318255
11.4688617268 0.0376831
11.967511218 0.0404225
12.466160987 0.0228594
12.9648110337 0
13.4634613582 0.0268304
13.9621119605 0.0833567
14.4607628406 0.184397
14.9594139986 0.323272
15.4580654345 0.445256
15.9567171484 0.615116
16.4553691403 0.716778
16.9540214101 0.739841
17.4526739581 0.734214
17.9513267841 0.711676
18.4499798882 0.705803
18.9486332704 0.702899
19.4472869308 0.694333
19.9459408695 0.681166
20.4445950864 0.662726
20.9432495815 0.583049
21.441904355 0.499702
21.9405594068 0.457702
22.439214737 0.416516
22.9378703456 0.364456
23.4365262327 0.332761
23.9351823982 0.317016
24.4338388423 0.311937
24.9324955648 0.318997
