-24.9335301769 0.54213
-24.4348663256 0.593705
-23.9362021993 0.639885
-23.4375377978 0.684455
-22.9388731213 0.724257
-22.4402081695 0.745692
-21.9415429425 0.741615
-21.4428774403 0.741346
-20.9442116628 0.761635
-20.44554561 0.737456
-19.9468792819 0.733424
-19.4482126784 0.74648
-18.9495457995 0.756946
-18.4508786451 0.784215
-17.9522112153 0.798191
-17.45354351 0.786456
-16.9548755291 0.771684
-16.4562072726 0.756678
-15.9575387406 0.746172
-15.4588699329 0.741729
-14.9602008496 0.737405
-14.4615314905 0.715505
-13.9628618557 0.686284
-13.4641919452 0.655597
-12.9655217588 0.628678
-12.4668512966 0.600189
-11.9681805586 0.569132
-11.4695095446 0.529182
-10.9708382547 0.488907
-10.4721666889 0.460361
-9.97349484703 0.41385
-9.47482272915 0.346631
-8.9761503352 0.332027
-8.47747766516 0.331962
-7.97880471899 0.289738
-7.48013149666 0.240818
-6.98145799813 0.195489
-6.48278422338 0.237208
-5.98411017237 0.245178
-5.48543584506 0.150356
-4.98676124143 0.0722333
-4.48808636144 0.0561161
-3.98941120506 0.0676922
-3.49073577225 0.107786
-2.99206006299 0.117956
-2.49338407724 0.088757
-1.99470781496 0.0764472
-1.49603127614 0.0712061
-0.997354460723 0.0741573
-0.498677368687 0.0825438
0 0.0922075
0.498677645373 0.0951346
0.997355567464 0.0969912
1.49603376631 0.107115
1.99471224193 0.120396
2.49339099437 0.133579
2.99207002366 0.133395
3.49074932983 0.106357
3.98942891292 0.0877158
4.48810877295 0.0839715
4.98678890996 0.13428
5.48546932398 0.217859
5.98415001504 0.212218
6.48283098319 0.175842
6.98151222844 0.160488
7.48019375083 0.114674
7.9788755504 0.0592199
8.47755762718 0.0491352
8.9762399812 0.0396201
9.47492261248 0.0361242
9.97360552108 0.0198963
10.472288707 0
10.9709721703 0.00641268
11.469655911 0.010374
11.9683399291 0.0219117
12.4670242248 0.0334087
12.9657087979 0.0391115
13.4643936485 0.049708
13.9630787767 0.0588868
14.4617641825 0.0849241
14.9604498659 0.118012
15.459135827 0.17478
15.9578220658 0.245453
16.4565085823 0.230652
16.9551953766 0.202485
17.4538824487 0.193788
17.9525697985 0.209642
18.4512574263 0.21699
18.9499453319 0.211925
19.4486335155 0.215459
19.947321977 0.25119
20.4460107165 0.292308
20.944699734 0.327944
21.4433890296 0.385706
21.9420786032 0.448204
22.440768455 0.511909
22.9394585849 0.544306
23.438148993 0.535487
23.9368396793 0.527856
24.4355306439 0.512532
24.9342218867 0.469677
