-24.9445900359 0.94165
-24.4457044341 0.961775
-23.9468185798 0.975283
-23.4479324728 1.01411
-22.9490461133 1.07914
-22.450159501 1.12269
-21.9512726361 1.20417
-21.4523855184 1.30944
-20.953498148 1.37638
-20.4546105249 1.41482
-19.9557226489 1.3569
-19.4568345201 1.27839
-18.9579461385 1.21498
-18.4590575039 1.13877
-17.9601686165 1.10308
-17.4612794761 1.06592
-16.9623900828 0.999196
-16.4635004365 0.948883
-15.9646105371 0.926875
-15.4657203847 0.877234
-14.9668299792 0.827308
-14.4679393207 0.716608
-13.969048409 0.701887
-13.4701572441 0.705444
-12.9712658261 0.721201
-12.4723741548 0.697855
-11.9734822303 0.508711
-11.4745900526 0.329898
-10.9756976215 0.209534
-10.4768049372 0.136108
-9.97791199946 0.0934896
-9.47901880837 0.0749773
-8.98012536387 0.0733917
-8.48123166595 0.0924444
-7.98233771457 0.080749
-7.4834435097 0.0704881
-6.98454905133 0.0584058
-6.48565433941 0.0597702
-5.98675937393 0.0538108
-5.48786415485 0.0511372
-4.98896868215 0.0401235
-4.4900729558 0.0360188
-3.99117697578 0.0334046
-3.49228074206 0.0294691
-2.9933842546 0.0342637
-2.49448751339 0.0410677
-1.99559051839 0.0423226
-1.49669326958 0.035279
-0.997795766928 0.0111682
-0.498898010411 0
0 0.000832164
0.498898264331 0.0424417
0.997796782612 0.118584
1.49669555487 0.158001
1.99559458113 0.182761
2.49449386142 0.230457
2.99339339576 0.287822
3.49229318419 0.315768
3.99119322673 0.321747
4.49009352341 0.312405
4.98899407426 0.29859
5.4878948793 0.298784
5.98679593856 0.295421
6.48569725207 0.302733
6.98459881985 0.28515
7.48350064194 0.25889
7.98240271835 0.31029
8.48130504912 0.378283
8.98020763427 0.403583
9.47911047383 0.426943
9.97801356784 0.487878
10.4769169163 0.573762
10.9758205193 0.637335
11.4747243767 0.675297
11.9736284888 0.718507
12.4725328554 0.762824
12.9714374765 0.791749
13.4703423524 0.817007
13.9692474828 0.847114
14.468152868 0.882022
14.9670585079 0.930059
15.4659644025 0.989833
15.9648705518 1.04398
16.463776956 1.09609
16.962683615 1.15684
17.4615905288 1.21445
17.9604976975 1.25414
18.459405121 1.27594
18.9583127995 1.31232
19.457220733 1.3569
19.9561289214 1.36408
20.4550373649 1.34874
20.9539460633 1.32356
21.4528550169 1.30444
21.9517642255 1.3126
22.4506736892 1.3272
22.9495834081 1.3508
23.4484933822 1.38386
23.9474036114 1.40731
24.4463140958 1.40939
24.9452248356 1.40086
