-24.9918861924 0.377015
-24.492052367 0.351453
-23.9922183825 0.329688
-23.492384239 0.305777
-22.9925499364 0.279154
-22.4927154748 0.226188
-21.9928808541 0.185278
-21.4930460743 0.176649
-20.9932111354 0.172263
-20.4933760374 0.171029
-19.9935407804 0.168634
-19.4937053642 0.163821
-18.993869789 0.160057
-18.4940340547 0.148972
-17.9941981612 0.14613
-17.4943621087 0.173535
-16.994525897 0.204303
-16.4946895263 0.245006
-15.9948529964 0.291256
-15.4950163073 0.342002
-14.9951794592 0.434173
-14.4953424519 0.552759
-13.9955052855 0.65975
-13.4956679599 0.664375
-12.9958304752 0.654929
-12.4959928314 0.632691
-11.9961550284 0.605181
-11.4963170662 0.592064
-10.9964789449 0.569666
-10.4966406644 0.561074
-9.99680222477 0.537021
-9.49696362594 0.52232
-8.99712486794 0.50448
-8.49728595075 0.469815
-7.99744687439 0.462618
-7.49760763883 0.459436
-6.99776824407 0.423641
-6.49792869012 0.360679
-5.99808897697 0.329009
-5.49824910461 0.323311
-4.99840907305 0.291341
-4.49856888227 0.219082
-3.99872853227 0.12904
-3.49888802305 0.054855
-2.99904735461 0.0263073
-2.49920652694 0.0166677
-1.99936554003 0.00890632
-1.49952439389 0
-0.999683088507 0.029244
-0.499841623879 0.0556825
0 0.0912085
0.499841783131 0.171015
0.99968372552 0.224927
1.49952582717 0.224006
1.99936808808 0.226055
2.49921050827 0.235544
2.99905308772 0.255497
3.49889582646 0.287936
3.99873872447 0.316958
4.49858178177 0.310939
4.99842499836 0.320426
5.49826837424 0.35684
5.99811190941 0.413411
6.49795560389 0.468734
6.99779945767 0.52348
7.49764347076 0.562109
7.99748764316 0.595898
8.49733197488 0.637757
8.99717646591 0.655002
9.49702111627 0.65839
9.99686592596 0.659629
10.496710895 0.652837
10.9965560233 0.683585
11.496401311 0.713729
11.9962467581 0.717997
12.4960923645 0.690972
12.9959381302 0.670645
13.4957840553 0.652226
13.9956301397 0.644889
14.4954763835 0.645266
14.9953227867 0.693599
15.4951693493 0.75305
15.9950160712 0.808951
16.4948629525 0.842384
16.9947099932 0.815545
17.4945571932 0.718287
17.9944045527 0.613274
18.4942520716 0.488223
18.9940997498 0.421306
19.4939475875 0.377501
19.9937955845 0.297286
20.493643741 0.222624
20.9934920568 0.188456
21.4933405321 0.19051
21.9931891668 0.196005
22.493037961 0.204061
22.9928869145 0.201411
23.4927360275 0.177572
23.9925853 0.157086
24.4924347318 0.158127
24.9922843231 0.183452
