-24.932739298 1.67241
-24.4340911514 1.64159
-23.9354427344 1.59787
-23.4367940468 1.59172
-22.9381450888 1.57761
-22.4394958602 1.55438
-21.9408463609 1.51942
-21.4421965911 1.50104
-20.9435465506 1.4471
-20.4448962394 1.38245
-19.9462456574 1.30564
-19.4475948047 1.27387
-18.9489436812 1.28605
-18.4502922869 1.27227
-17.9516406217 1.21655
-17.4529886856 1.17305
-16.9543364786 1.10702
-16.4556840007 1.023
-15.9570312517 0.983966
-15.4583782317 0.975367
-14.9597249406 0.943972
-14.4610713785 0.904771
-13.9624175452 0.855864
-13.4637634407 0.822433
-12.9651090651 0.788596
-12.4664544182 0.747003
-11.9677995001 0.692086
-11.4691443106 0.637418
-10.9704888499 0.602579
-10.4718331178 0.597653
-9.97317711424 0.60619
-9.4745208393 0.600663
-8.97586429289 0.561696
-8.47720747499 0.523725
-7.97855038557 0.505966
-7.47989302458 0.49217
-6.981235392 0.468455
-6.4825774878 0.461594
-5.98391931193 0.472058
-5.48526086437 0.432422
-4.98660214508 0.37773
-4.48794315404 0.293459
-3.9892838912 0.249032
-3.49062435654 0.234987
-2.99196455002 0.226976
-2.4933044716 0.211576
-1.99464412126 0.174287
-1.49598349897 0.144924
-0.99732260468 0.106084
-0.498661438369 0.0683805
0 0.036883
0.498661710458 0.00375331
0.99732369304 0
1.49598594778 0.0134468
1.99464847471 0.0969215
2.49331127386 0.187308
2.99197434526 0.234915
3.49063768895 0.279773
3.98930130497 0.286403
4.48796519334 0.364344
4.98662935409 0.504945
5.48529378727 0.636279
5.9839584929 0.716702
6.48262347102 0.735878
6.98128872165 0.742569
7.47995424484 0.740733
7.97862004061 0.71215
8.47728610901 0.667671
8.97595245005 0.57887
9.47461906377 0.482686
9.97328595022 0.40701
10.4719531094 0.409434
10.9706205414 0.39128
11.4692882462 0.323277
11.9679562238 0.2934
12.4666244743 0.319846
12.9652929978 0.347005
13.4639617942 0.372861
13.9626308635 0.428012
14.4613002059 0.451843
14.9599698213 0.445503
15.4586397098 0.432228
15.9573098714 0.467766
16.4559803062 0.523141
16.9546510141 0.523879
17.4533219953 0.521681
17.9519932497 0.55682
18.4506647773 0.599444
18.9493365783 0.638622
19.4480086526 0.660785
19.9466810003 0.649963
20.4453536214 0.620563
20.9440265159 0.566211
21.4426996839 0.50102
21.9413731254 0.458808
22.4400468405 0.405524
22.9387208291 0.367888
23.4373950913 0.347733
23.9360696272 0.312646
24.4347444367 0.280966
24.93341952 0.294614
