-24.9648126437 1.22831
-24.4655217598 1.25167
-23.9662306571 1.27965
-23.4669393355 1.31272
-22.9676477949 1.34215
-22.4683560355 1.3563
-21.9690640572 1.35313
-21.4697718599 1.34901
-20.9704794436 1.3374
-20.4711868083 1.32001
-19.971893954 1.32493
-19.4726008808 1.32125
-18.9733075884 1.28087
-18.4740140771 1.18703
-17.9747203466 1.06687
-17.475426397 0.95532
-16.9761322284 0.850722
-16.4768378406 0.77103
-15.9775432337 0.752906
-15.4782484076 0.744198
-14.9789533623 0.747125
-14.4796580979 0.735261
-13.9803626142 0.698667
-13.4810669113 0.661952
-12.9817709891 0.607842
-12.4824748477 0.572853
-11.983178487 0.521976
-11.483881907 0.461872
-10.9845851077 0.416717
-10.485288089 0.368157
-9.98599085103 0.29279
-9.48669339365 0.211119
-8.98739571689 0.151456
-8.48809782071 0.12247
-7.98879970512 0.0868705
-7.48950137009 0.0593093
-6.9902028156 0.0377337
-6.49090404163 0.0256533
-5.99160504817 0.0221074
-5.49230583521 0.0249247
-4.99300640271 0.0272937
-4.49370675068 0.0290783
-3.99440687908 0.0266745
-3.4951067879 0.0238925
-2.99580647713 0.0197755
-2.49650594674 0.0109838
-1.99720519672 0.00643781
-1.49790422706 0.0188964
-0.998603037726 0.0189202
-0.499301628713 0.0140695
0 0.0220625
0.499301848431 0.0232344
0.998603916595 0.0314027
1.49790620451 0.0260089
1.9972087122 0.0238975
2.49651143967 0.0142981
2.99581438695 0.00104946
3.49511755404 0
3.99442094098 0.00670794
4.49372454777 0.0118943
4.99302837443 0.0180129
5.49233242098 0.0155571
5.99163668744 0.0106116
6.49094117383 0.020017
6.99024588015 0.0698632
7.48955080644 0.152021
7.9888559527 0.254225
8.48816131895 0.345437
8.98746690521 0.40814
9.48677271151 0.461119
9.98607873784 0.49484
10.4853849842 0.477622
10.9846914507 0.455123
11.4839981373 0.415429
11.983305044 0.364815
12.4826121708 0.335277
12.9819195178 0.295815
13.4812270849 0.250017
13.9805348722 0.188572
14.4798428797 0.150186
14.9791511075 0.182317
15.4784595554 0.197767
15.9777682236 0.22351
16.4770771121 0.265231
16.9763862209 0.327291
17.47569555 0.440884
17.9750050993 0.537681
18.4743148691 0.610518
18.9736248591 0.668443
19.4729350696 0.726585
19.9722455004 0.76309
20.4715561517 0.775746
20.9708670233 0.784937
21.4701781154 0.799583
21.969489428 0.804237
22.468800961 0.81522
22.9681127145 0.820628
23.4674246886 0.824212
23.9667368831 0.851862
24.4660492982 0.980035
24.9653619339 1.12602
