-24.9504069248 0.903045
-24.4514047322 0.850837
-23.9524022972 0.85656
-23.4533996199 0.97806
-22.9543967003 1.03217
-22.4553935383 1.06702
-21.9563901339 1.15445
-21.4573864871 1.23724
-20.9583825979 1.30264
-20.4593784662 1.34963
-19.960374092 1.39861
-19.4613694753 1.41687
-18.962364616 1.42221
-18.4633595142 1.39557
-17.9643541698 1.34779
-17.4653485828 1.30635
-16.9663427531 1.2668
-16.4673366808 1.25432
-15.9683303658 1.2506
-15.4693238081 1.20888
-14.9703170076 1.12828
-14.4713099644 1.09768
-13.9723026784 1.0834
-13.4732951496 1.09965
-12.974287378 1.08688
-12.4752793634 1.0531
-11.9762711061 1.01506
-11.4772626058 0.959759
-10.9782538625 0.906483
-10.4792448763 0.861033
-9.98023564718 0.811966
-9.48122617501 0.74796
-8.9822164598 0.689353
-8.48320650154 0.667966
-7.9841963002 0.650021
-7.48518585576 0.658032
-6.98617516819 0.656215
-6.48716423746 0.6154
-5.98815306356 0.581794
-5.48914164646 0.54545
-4.99012998613 0.54702
-4.49111808255 0.473071
-3.99210593569 0.375378
-3.49309354553 0.173869
-2.99408091205 0.092003
-2.49506803523 0.142974
-1.99605491502 0.250189
-1.49704155142 0.280664
-0.998027944404 0.208389
-0.499014093937 0.117955
0 0.0987341
0.499014337431 0.163114
0.998028918383 0.196357
1.49704374288 0.181215
1.99605881094 0.151578
2.4950741226 0.103768
2.99408967787 0.0554479
3.49310547678 0.0157906
3.99212151936 0.0049012
4.49113780563 0
4.99015433561 0.018097
5.48917110933 0.0861077
5.98818812681 0.190899
6.48720538808 0.291278
6.98622289316 0.368397
7.48524064208 0.487096
7.98425863486 0.587027
8.48327687152 0.706004
8.98229535209 0.926501
9.48131407659 1.1591
9.98033304505 1.22111
10.4793522575 1.17639
10.9783717139 1.02177
11.4773914144 0.80012
11.9764113589 0.565613
12.4754315475 0.377803
12.9744519803 0.214806
13.4734726571 0.115117
13.9724935781 0.125038
14.4715147432 0.139974
14.9705361526 0.144566
15.4695578062 0.151638
15.968579704 0.145079
16.4676018461 0.109455
16.9666242325 0.123596
17.4656468632 0.149983
17.9646697383 0.161351
18.4636928577 0.166355
18.9627162216 0.190131
19.4617398298 0.2197
19.9607636825 0.251364
20.4597877797 0.283381
20.9588121213 0.347639
21.4578367074 0.422713
21.9568615381 0.461228
22.4558866134 0.555667
22.9549119332 0.659573
23.4539374977 0.720235
23.9529633068 0.753825
24.4519893605 0.772443
24.9510156589 0.743515
