-24.9317927584 0.388041
-24.4331636587 0.355817
-23.9345342837 0.340135
-23.4359046336 0.351228
-22.9372747081 0.373054
-22.4386445074 0.357682
-21.9400140314 0.316624
-21.44138328 0.288052
-20.9427522532 0.269937
-20.444120951 0.242612
-19.9454893733 0.23264
-19.4468575201 0.230285
-18.9482253914 0.220666
-18.4495929871 0.212795
-17.9509603073 0.208062
-17.4523273518 0.204176
-16.9536941206 0.198167
-16.4550606137 0.19047
-15.9564268311 0.189524
-15.4577927728 0.192974
-14.9591584386 0.196843
-14.4605238286 0.202503
-13.9618889428 0.208474
-13.463253781 0.210323
-12.9646183433 0.212122
-12.4659826296 0.23548
-11.96734664 0.250284
-11.4687103743 0.259557
-10.9700738325 0.257733
-10.4714370146 0.256429
-9.97279992061 0.260471
-9.47416255044 0.26634
-8.97552490405 0.262655
-8.47688698143 0.251987
-7.97824878254 0.24071
-7.47961030734 0.233221
-6.98097155581 0.234014
-6.4823325279 0.255113
-5.98369322359 0.232796
-5.48505364284 0.188603
-4.98641378562 0.127973
-4.48777365189 0.0861594
-3.98913324162 0.0678208
-3.49049255478 0.0581226
-2.99185159133 0.0544104
-2.49321035124 0.0303781
-1.99456883447 0.00526568
-1.495927041 0
-0.997284970785 0.00631592
-0.498642623796 0.0475821
0 0.0878256
0.498642900639 0.083087
0.997286078152 0.0847771
1.49592953257 0.111731
1.99457326394 0.136705
2.49321727228 0.141687
2.99186155763 0.15096
3.49050612002 0.143905
3.98915095949 0.160101
4.48779607607 0.251773
4.98644146979 0.38815
5.48508714069 0.544985
5.9837330888 0.653957
6.48237931415 0.679533
6.98102581678 0.678277
7.47967259672 0.658206
7.978319654 0.639596
8.47696698866 0.629292
8.97561460073 0.627157
9.47426249025 0.628362
9.97291065724 0.635014
10.4715591017 0.658606
10.9702078238 0.69281
11.4688568234 0.718372
11.9675061007 0.735276
12.4661556555 0.716344
12.9648054881 0.700927
13.4634555984 0.731788
13.9621059864 0.744533
14.4607566522 0.707436
14.9594075958 0.673158
15.4580588172 0.645167
15.9567103165 0.624918
16.4553620938 0.61676
16.9540141489 0.609918
17.4526664821 0.599697
17.9513190933 0.587752
18.4499719825 0.578856
18.9486251498 0.56988
19.4472785952 0.55989
19.9459323187 0.546968
20.4445863204 0.558743
20.9432406004 0.55788
21.4418951585 0.546225
21.940549995 0.543603
22.4392051098 0.535931
22.9378605029 0.524771
23.4365161743 0.513138
23.9351721242 0.503236
24.4338283526 0.495153
24.9324848594 0.489994
