-24.9505049715 0.526987
-24.4515008318 0.476644
-23.9524964493 0.462718
-23.4534918239 0.474678
-22.9544869556 0.49316
-22.4554818443 0.492137
-21.9564764901 0.493151
-21.4574708929 0.517101
-20.9584650527 0.569284
-20.4594589694 0.550464
-19.9604526431 0.460472
-19.4614460737 0.453547
-18.9624392612 0.501719
-18.4634322055 0.578512
-17.9644249068 0.636771
-17.4654173648 0.618752
-16.9664095796 0.612689
-16.4674015512 0.604609
-15.9683932795 0.55001
-15.4693847645 0.530584
-14.9703760063 0.539577
-14.4713670047 0.556826
-13.9723577597 0.542109
-13.4733482714 0.479719
-12.9743385397 0.393223
-12.4753285645 0.325112
-11.9763183459 0.322343
-11.4773078838 0.368706
-10.9782971782 0.400857
-10.4792862291 0.398818
-9.98027503645 0.36228
-9.48126360021 0.287993
-8.98225192037 0.269609
-8.48323999691 0.24773
-7.9842278298 0.2102
-7.48521541902 0.217956
-6.98620276454 0.274417
-6.48718986634 0.330743
-5.98817672439 0.392852
-5.48916333868 0.414424
-4.99014970917 0.426489
-4.49113583584 0.465554
-3.99212171867 0.470682
-3.49310735763 0.44383
-2.99409275269 0.397985
-2.49507790384 0.33841
-1.99606281105 0.218284
-1.4970474743 0.103009
-0.998031893555 0.0645022
-0.499016068797 0.0427264
0 0.00825005
0.499016312859 0
0.998032869805 0.0372207
1.49704967086 0.0892277
1.99606671605 0.0427989
2.49508400541 0.0595167
2.99410153894 0.140489
3.49311931669 0.292673
3.99213733866 0.52492
4.4911556049 0.658103
4.99017411541 0.796352
5.48919287023 0.968489
5.98821186938 1.16892
6.48723111289 1.31552
6.98625060077 1.34889
7.48527033306 1.34647
7.98429030977 1.34565
8.48331053093 1.33243
8.98233099657 1.27212
9.48135170671 1.17932
9.98037266137 1.06134
10.4793938606 0.971894
10.9784153044 1.01415
11.4774369927 1.05116
11.9764589257 1.04775
12.4754811034 1.02755
12.9745035257 1.04607
13.4735261927 1.02906
13.9725491044 1.06025
14.4715722609 1.1781
14.9705956621 1.25474
15.4696193081 1.36134
15.968643199 1.5073
16.4676673346 1.58511
16.9666917152 1.62294
17.4657163406 1.64654
17.9647412109 1.62014
18.4637663262 1.59215
18.9627916864 1.57898
19.4618172916 1.58627
19.9608431418 1.54698
20.4598692371 1.44808
20.9588955774 1.33452
21.4579221627 1.22304
21.9569489932 1.12081
22.4559760688 1.09205
22.9550033896 1.07157
23.4540309555 1.0862
23.9530587666 1.1218
24.452086823 1.18472
24.9511151246 1.2452
