-24.9318102368 0.784145
-24.4331807903 0.791518
-23.9345510684 0.77255
-23.4359210712 0.764007
-22.9372907987 0.767294
-22.4386602507 0.765273
-21.9400294273 0.7492
-21.4413983285 0.736249
-20.9427669541 0.7319
-20.4441353042 0.723323
-19.9455033787 0.712353
-19.4468711776 0.703154
-18.9482387008 0.684318
-18.4496059484 0.6815
-17.9509729203 0.667551
-17.4523396164 0.648572
-16.9537060367 0.645334
-16.4550721813 0.645561
-15.95643805 0.635172
-15.4578036428 0.617438
-14.9591689597 0.607062
-14.4605340006 0.598536
-13.9618987656 0.594474
-13.4632632545 0.601784
-12.9646274674 0.607369
-12.4659914043 0.575533
-11.967355065 0.542733
-11.4687184495 0.55031
-10.9700815579 0.553118
-10.4714443901 0.52416
-9.97280694599 0.482577
-9.47416922561 0.481113
-8.97553122893 0.469165
-8.47689295589 0.420224
-7.97825440646 0.390859
-7.47961558062 0.356892
-6.98097647833 0.320887
-6.48233709955 0.271696
-5.98369744425 0.227011
-5.4850575124 0.17784
-4.98641730397 0.129812
-4.48777681891 0.0843533
-3.9891360572 0.0479651
-3.49049501881 0.0281951
-2.99185370369 0.0120078
-2.49321211183 0
-1.99457024317 0.00920853
-1.49592809769 0.0361945
-0.99728567536 0.0599262
-0.498642976141 0.0712675
0 0.0578719
0.498643253096 0.0307102
0.99728678318 0.0167285
1.49593059029 0.0301456
1.99457467445 0.0436142
2.4932190357 0.0344699
2.99186367407 0.0246622
3.4905085896 0.0208663
3.98915378232 0.0145472
4.48779925226 0.0187438
4.98644499946 0.0214831
5.48509102395 0.0180791
5.98373732576 0.0202796
6.48238390493 0.0246209
6.98103076148 0.0272544
7.47967789546 0.0164683
7.9783253069 0.0149259
8.47697299583 0.0211232
8.97562096228 0.0490054
9.47426920629 0.122478
9.97291772789 0.234263
10.4715665271 0.373227
10.970215604 0.514265
11.4688649586 0.650743
11.9675145909 0.739971
12.4661645009 0.801773
12.9648146888 0.860964
13.4634651544 0.914238
13.9621158979 0.956168
14.4607669194 1.00679
14.9594182187 1.1286
15.458069796 1.19796
15.9567216513 1.20053
16.4553737846 1.10801
16.954026196 1.02806
17.4526788854 0.970423
17.951331853 0.866811
18.4499850987 0.825666
18.9486386227 0.759754
19.4472924248 0.67206
19.9459465052 0.603844
20.4446008639 0.528124
20.9432555009 0.43174
21.4419104163 0.334251
21.9405656101 0.223976
22.4392210823 0.125614
22.9378768329 0.0992905
23.4365328621 0.120081
23.9351891697 0.137479
24.4338457559 0.172986
24.9325026207 0.216198
