-24.9335649149 0.983147
-24.4349003744 0.971355
-23.9362355585 0.965083
-23.4375704673 0.954137
-22.9389051007 0.963705
-22.4402394587 0.980923
-21.9415735413 0.977813
-21.4429073484 0.960123
-20.9442408801 0.958222
-20.4455741362 0.9535
-19.9469071167 0.93606
-19.4482398217 0.916352
-18.949572251 0.903312
-18.4509044047 0.888577
-17.9522362826 0.860563
-17.4535678849 0.841987
-16.9548992113 0.836176
-16.456230262 0.840811
-15.9575610369 0.809458
-15.4588915359 0.789617
-14.960221759 0.774274
-14.4615517062 0.757555
-13.9628813774 0.75038
-13.4642107726 0.734161
-12.9655398918 0.711307
-12.466868735 0.697449
-11.9681973021 0.688714
-11.469525593 0.63054
-10.9708536078 0.554373
-10.4721813464 0.49565
-9.97350880881 0.479998
-9.47483599495 0.486868
-8.9761629048 0.476641
-8.47748953833 0.462888
-7.97881589551 0.438329
-7.48014197631 0.406746
-6.98146778069 0.349987
-6.48279330863 0.331287
-5.98411856008 0.334971
-5.48544353501 0.32729
-4.9867682334 0.326601
-4.48809265521 0.327976
-3.98941680041 0.338627
-3.49074066896 0.34853
-2.99206426083 0.328661
-2.49338757599 0.302493
-1.99471061441 0.305112
-1.49603337606 0.317367
-0.997355860889 0.30889
-0.498678068882 0.298047
0 0.284467
0.498678345789 0.279341
0.997356968517 0.28927
1.49603586822 0.291788
1.99471504492 0.283757
2.49339449867 0.255234
2.99207422948 0.237469
3.49075423739 0.326134
3.98943452244 0.44006
4.48811508466 0.619161
4.98679592408 0.755691
5.48547704073 0.828165
5.98415843465 0.84591
6.48284010586 0.85193
6.98152205441 0.861101
7.48020428032 0.872162
7.97888678362 0.888317
8.47756956436 0.921223
8.97625262255 0.967944
9.47493595824 1.02547
9.97361957145 1.03269
10.4723034622 0.996965
10.9709876306 0.959989
11.4696720766 0.925655
11.9683568002 0.981617
12.4670418016 1.03539
12.9657270806 1.04379
13.4644126374 1.09295
13.963098472 1.19676
14.4617845844 1.3112
14.9604709747 1.38484
15.4591576428 1.38487
15.9578445889 1.33074
16.4565318129 1.17523
16.9552193149 0.953894
17.4539070949 0.818946
17.9525951529 0.727982
18.4512834891 0.675306
18.9499721033 0.604668
19.4486609957 0.534203
19.9473501662 0.459558
20.446039615 0.365714
20.944729342 0.253813
21.4434193473 0.162601
21.9421096308 0.0850817
22.4408001927 0.0403971
22.939491033 0.0279085
23.4381821517 0.0139197
23.9368735488 0.0108226
24.4355652244 0
24.9342571785 0.0547532
