-24.9335231824 0.224385
-24.43485947 0.221401
-23.9361954825 0.232017
-23.4375312199 0.234002
-22.9388666822 0.222182
-22.4402018694 0.19997
-21.9415367815 0.185747
-21.4428714183 0.172429
-20.94420578 0.164986
-20.4455398663 0.176906
-19.9468736774 0.190872
-19.4482072131 0.205325
-18.9495404735 0.215265
-18.4508734585 0.223576
-17.952206168 0.211346
-17.4535386021 0.21214
-16.9548707607 0.24119
-16.4562026438 0.266653
-15.9575342513 0.280874
-15.4588655832 0.298594
-14.9601966395 0.319452
-14.4615274201 0.329678
-13.9628579251 0.327626
-13.4641881543 0.33622
-12.9655181078 0.330185
-12.4668477854 0.305386
-11.9681771873 0.275937
-11.4695063133 0.268803
-10.9708351634 0.258367
-10.4721637376 0.239
-9.97349203583 0.219842
-9.47482005809 0.212482
-8.97614780432 0.214256
-8.47747527451 0.209889
-7.97880246861 0.196381
-7.48012938659 0.206766
-6.98145602842 0.209202
-6.48278239407 0.217078
-5.9841084835 0.218361
-5.48543429669 0.185805
-4.9867598336 0.202293
-4.48808509419 0.189114
-3.98941007843 0.129657
-3.4907347863 0.0927407
-2.99205921775 0.0690369
-2.49338337276 0.0848894
-1.9947072513 0.0955544
-1.49603085332 0.122748
-0.997354178799 0.134254
-0.498677227704 0.142922
0 0.104222
0.498677504345 0.0617629
0.997355285363 0.0511889
1.49603334309 0.073152
1.99471167755 0.10002
2.49339028878 0.128188
2.99206917682 0.13711
3.49074834169 0.13064
3.98942778344 0.126677
4.48810750208 0.120981
4.98678749766 0.114042
5.48546777021 0.0882772
5.98414831976 0.0575943
6.48282914634 0.0300835
6.98151024998 0.00698482
7.48019163072 0
7.9788732886 0.0206211
8.47755522363 0.0667189
8.97623743586 0.0745482
9.47491992532 0.099365
9.97360269203 0.169235
10.472285736 0.246814
10.9709690574 0.307072
11.4696526561 0.361718
11.9683365322 0.437915
12.4670206857 0.496121
12.9657051166 0.523966
13.4643898251 0.554201
13.963074811 0.600736
14.4617600746 0.641586
14.9604456157 0.658572
15.4591314344 0.6662
15.9578175308 0.729153
16.4565039048 0.792726
16.9551905566 0.791676
17.4538774861 0.797446
17.9525646934 0.877476
18.4512521786 0.894922
18.9499399415 0.865624
19.4486279824 0.848073
19.9473163011 0.834504
20.4460048978 0.800868
20.9446937725 0.762724
21.4433829251 0.712843
21.9420723558 0.678244
22.4407620646 0.644344
22.9394520515 0.589718
23.4381423165 0.549344
23.9368328597 0.527263
24.4355236811 0.526395
24.9342147807 0.563694
