-24.9646152868 1.09013
-24.4653283251 1.07046
-23.9660411455 1.04762
-23.4667537481 1.04198
-22.9674661328 1.05933
-22.4681782996 1.07919
-21.9688902485 1.11298
-21.4696019795 1.14864
-20.9703134925 1.11264
-20.4710247876 1.08118
-19.9717358646 1.0601
-19.4724467237 1.05264
-18.9731573647 1.03466
-18.4738677878 1.01235
-17.9745779927 1.01012
-17.4752879796 1.01726
-16.9759977484 1.00338
-16.4767072991 0.979512
-15.9774166317 0.972372
-15.4781257461 0.960089
-14.9788346424 0.937558
-14.4795433205 0.907732
-13.9802517804 0.887048
-13.4809600221 0.831687
-12.9816680456 0.814005
-12.4823758508 0.769473
-11.9830834377 0.732525
-11.4837908064 0.670679
-10.9844979568 0.603551
-10.4852048888 0.551828
-9.98591160255 0.469895
-9.48661809793 0.374673
-8.98732437493 0.282198
-8.48803043355 0.214306
-7.98873627376 0.164541
-7.48944189555 0.146661
-6.99014729891 0.14728
-6.4908524838 0.147887
-5.99155745023 0.138436
-5.49226219816 0.13764
-4.99296672758 0.146155
-4.49367103848 0.152627
-3.99437513083 0.15996
-3.49507900462 0.169106
-2.99578265984 0.173474
-2.49648609646 0.187056
-1.99718931446 0.197197
-1.49789231384 0.199349
-0.998595094562 0.190577
-0.499297656622 0.170249
0 0.19279
0.499297875322 0.178976
0.998595969363 0.149362
1.49789428214 0.116577
1.99719281367 0.0752545
2.49649156396 0.0445015
2.99579053305 0.0457516
3.49508972094 0.0435636
3.99438912765 0.0194436
4.4936887532 0.00566201
4.99298859761 0.000985981
5.49228866089 0
5.99158894306 0.0207381
6.49088944414 0.0938607
6.99019016415 0.203939
7.4894911031 0.268924
7.98879226101 0.31269
8.48809363789 0.371416
8.98739523378 0.461973
9.48669704868 0.536654
9.9859990826 0.603372
10.4853013356 0.662783
10.9846038076 0.714381
11.4839064987 0.75615
11.9832094089 0.791625
12.4825125383 0.813687
12.9818158867 0.837512
13.4811194544 0.865944
13.9804232412 0.88205
14.4797272471 0.914357
14.9790314723 0.962992
15.4783359167 1.00265
15.9776405803 1.03715
16.4769454632 1.0908
16.9762505654 1.13234
17.4755558868 1.17794
17.9748614276 1.20213
18.4741671876 1.25028
18.973473167 1.29839
19.4727793658 1.35885
19.972085784 1.41784
20.4713924215 1.42758
20.9706992784 1.45598
21.4700063548 1.47272
21.9693136506 1.4729
22.4686211659 1.44817
22.9679289007 1.43115
23.4672368549 1.4353
23.9665450287 1.42847
24.4658534219 1.42521
24.9651620348 1.43736
