-24.9330024373 0.453456
-24.4343490747 0.457629
-23.9356954397 0.4655
-23.4370415322 0.483084
-22.9383873524 0.502673
-22.4397329 0.52668
-21.9410781752 0.549549
-21.4424231778 0.558688
-20.9437679078 0.551929
-20.4451123653 0.536875
-19.9464565501 0.51743
-19.4478004622 0.507252
-18.9491441017 0.5066
-18.4504874684 0.50676
-17.9518305623 0.517785
-17.4531733834 0.555378
-16.9545159317 0.587483
-16.4558582071 0.583476
-15.9572002096 0.589527
-15.4585419392 0.594241
-14.9598833958 0.578821
-14.4612245795 0.542939
-13.96256549 0.480578
-13.4639061275 0.450969
-12.965246492 0.447416
-12.4665865832 0.440857
-11.9679264013 0.459102
-11.4692659463 0.483235
-10.9706052179 0.500139
-10.4719442163 0.525695
-9.97328294146 0.555095
-9.47462139324 0.580314
-8.97595957165 0.602713
-8.47729747667 0.632504
-7.97863510825 0.653032
-7.47997246637 0.646051
-6.981309551 0.594675
-6.48264636209 0.521739
-5.98398289962 0.45702
-5.48531916355 0.432967
-4.98665515385 0.41936
-4.48799087049 0.374207
-3.98932631344 0.332845
-3.49066148265 0.303924
-2.99199637811 0.282271
-2.49333099977 0.255689
-1.9946653476 0.190263
-1.49599942157 0.129324
-0.997333221653 0.086654
-0.498666747806 0.0611338
0 0.0561515
0.498667021799 0.0618948
0.997334317622 0.0576569
1.4960018875 0.0730984
1.99466973148 0.0947376
2.49333784957 0.0988653
2.99200624182 0.0924362
3.49067490827 0.0936271
3.98934384893 0.124325
4.48801306385 0.171242
4.98668255306 0.219901
5.48535231659 0.287035
5.98402235447 0.384869
6.48269266674 0.467305
6.98136325343 0.539019
7.48003411457 0.571532
7.9787052502 0.574237
8.47737666034 0.596821
8.97604834504 0.64148
9.47472030432 0.702366
9.97339253822 0.726878
10.4720650468 0.705592
10.97073783 0.664749
11.4694108879 0.614893
11.9680842206 0.57452
12.4667578281 0.548361
12.9654317104 0.554434
13.4641058675 0.604561
13.9627802995 0.677062
14.4614550064 0.772728
14.9601299883 0.87236
15.4588052451 0.956435
15.957480777 1.02076
16.4561565839 1.1038
16.9548326658 1.15656
17.4535090229 1.17622
17.9521856551 1.17605
18.4508625625 1.13717
18.9495397451 1.05411
19.4482172029 0.947186
19.946894936 0.758359
20.4455729445 0.472618
20.9442512282 0.220558
21.4429297873 0.0502335
21.9416086218 0
22.4402877318 0.0193219
22.9389671172 0.0766517
23.4376467781 0.0588257
23.9363267146 0.0211606
24.4350069266 0.00834954
24.9336874142 0.0475802
