-24.99590518 0.438928
-24.4959907235 0.459887
-23.9960761182 0.50882
-23.496161364 0.456915
-22.996246461 0.412939
-22.4963314092 0.405075
-21.9964162085 0.412427
-21.496500859 0.410966
-20.9965853606 0.405831
-20.4966697135 0.429617
-19.9967539174 0.413294
-19.4968379725 0.406299
-18.9969218788 0.411264
-18.4970056362 0.417085
-17.9970892448 0.418332
-17.4971727045 0.431103
-16.9972560154 0.443571
-16.4973391774 0.449975
-15.9974221905 0.452257
-15.4975050548 0.432893
-14.9975877702 0.399812
-14.4976703367 0.364734
-13.9977527544 0.350898
-13.4978350232 0.344708
-12.9979171431 0.3304
-12.4979991142 0.337435
-11.9980809364 0.395595
-11.4981626097 0.495942
-10.9982441341 0.589282
-10.4983255096 0.568698
-9.99840673627 0.58113
-9.49848781402 0.667908
-8.99856874289 0.768492
-8.49864952286 0.818434
-7.99873015395 0.848196
-7.49881063613 0.824059
-6.99889096942 0.821779
-6.49897115381 0.77955
-5.99905118929 0.705185
-5.49913107587 0.586881
-4.99921081354 0.435205
-4.49929040231 0.332865
-3.99936984217 0.293592
-3.49944913311 0.247636
-2.99952827514 0.192393
-2.49960726825 0.147136
-1.99968611245 0.13395
-1.49976480772 0.0951487
-0.999843354071 0.0689592
-0.499921751498 0.0339029
0 0.00655226
0.499921900427 0
0.999843949786 0.00620758
1.49976614807 0.0123143
1.9996884953 0.0128225
2.49961099146 0.0100086
2.99953363656 0.00724638
3.49945643059 0.00805016
3.99937937358 0.00604067
4.4993024655 0.00813558
4.99922570637 0.00905095
5.49914909619 0.00831298
5.99907263496 0.0137764
6.49899632268 0.0120656
6.99892015935 0.015853
7.49884414498 0.0351479
7.99876827957 0.0712733
8.49869256311 0.116238
8.99861699562 0.180382
9.49854157709 0.228341
9.99846630753 0.248182
10.4983911869 0.266148
10.9983162153 0.262653
11.4982413926 0.189234
11.998166719 0.0980746
12.4980921943 0.0624424
12.9980178185 0.0507156
13.4979435918 0.0488236
13.997869514 0.051096
14.4977955852 0.0454194
14.9977218054 0.0361056
15.4976481746 0.0369931
15.9975746928 0.039492
16.4975013599 0.0431105
16.9974281761 0.0582525
17.4973551412 0.0896823
17.9972822553 0.148734
18.4972095185 0.212399
18.9971369306 0.279955
19.4970644917 0.371878
19.9969922019 0.464696
20.496920061 0.513889
20.9968480692 0.524333
21.4967762263 0.528352
21.9967045325 0.529459
22.4966329877 0.534126
22.9965615919 0.544175
23.4964903451 0.554548
23.9964192473 0.555776
24.4963482986 0.552353
24.9962774988 0.552956
