-24.9327520007 1.42656
-24.4341036021 1.38987
-23.935454933 1.34567
-23.4368059932 1.29387
-22.9381567829 1.23266
-22.4395073019 1.23735
-21.9408575502 1.19472
-21.4422075279 1.14905
-20.9435572348 1.11804
-20.4449066709 1.07474
-19.9462558361 1.02925
-19.4476047306 0.978991
-18.9489533542 0.929996
-18.4503017068 0.875266
-17.9516497885 0.831503
-17.4529975992 0.799364
-16.954345139 0.77281
-16.4556924076 0.752269
-15.9570394052 0.755015
-15.4583861317 0.760101
-14.959732587 0.745108
-14.4610787712 0.720663
-13.9624246841 0.702227
-13.4637703258 0.684637
-12.9651156963 0.670859
-12.4664607954 0.653012
-11.9678056231 0.630099
-11.4691501795 0.616191
-10.9704944645 0.630132
-10.471838478 0.630322
-9.9731822201 0.613005
-9.47452569065 0.593504
-8.97586888965 0.570508
-8.47721181708 0.541489
-7.9785544729 0.50093
-7.47989685707 0.453945
-6.98123896957 0.420899
-6.48258081036 0.424128
-5.98392237941 0.429042
-5.48526367668 0.430378
-4.98660470214 0.41416
-4.48794545576 0.393322
-3.9892859375 0.363901
-3.49062614734 0.332543
-2.99196608524 0.290567
-2.49330575116 0.257497
-1.99464514508 0.2134
-1.49598426695 0.155194
-0.99732311675 0.13472
-0.498661694445 0.12868
0 0.11626
0.498661966618 0.0903404
0.997324205441 0.0429977
1.4959867165 0
1.99464949984 0.00750151
2.49331255547 0.0420041
2.99197588345 0.0915237
3.4906394838 0.155347
3.98930335655 0.217602
4.48796750174 0.198085
4.98663191939 0.210162
5.48529660955 0.243886
5.98396157225 0.251449
6.48262680751 0.231205
6.98129231538 0.21722
7.47995809588 0.209993
7.97862414905 0.190892
8.47729047492 0.186114
8.97595707352 0.216039
9.47462394489 0.280681
9.97329108905 0.338207
10.4719585061 0.37937
10.9706261959 0.412431
11.4692941587 0.401038
11.9679623944 0.403731
12.466630903 0.425693
12.9652996847 0.42089
13.4639687394 0.428804
13.9626380671 0.498571
14.461307668 0.581165
14.9599775419 0.609997
15.4586476891 0.645593
15.9573181094 0.714052
16.4559888029 0.788593
16.9546597697 0.839844
17.4533310098 0.878092
17.9520025233 0.903784
18.4506743101 0.935824
18.9493463702 0.978034
19.4480187038 1.03351
19.9466913109 1.0646
20.4453641914 1.06555
20.9440373455 1.04088
21.4427107731 1.01444
21.9413844743 1.08131
22.4400584492 1.18503
22.9387326976 1.2429
23.4374072198 1.25304
23.9360820157 1.22006
24.4347570853 1.18982
24.9334324288 1.1585
