-24.9335336683 0.750733
-24.4348697477 0.74632
-23.9362055521 0.739244
-23.4375410813 0.73868
-22.9388763354 0.752768
-22.4402113143 0.728116
-21.9415460179 0.702641
-21.4428804463 0.682899
-20.9442145993 0.66019
-20.4455484771 0.633965
-19.9468820795 0.606081
-19.4482154064 0.589966
-18.949548458 0.583757
-18.4508812341 0.572157
-17.9522137347 0.559567
-17.4535459598 0.551412
-16.9548779093 0.549444
-16.4562095832 0.545581
-15.9575409815 0.543152
-15.4588721042 0.535724
-14.9602029511 0.527265
-14.4615335223 0.521113
-13.9628638178 0.517256
-13.4641938375 0.521648
-12.9655235813 0.520754
-12.4668530493 0.519646
-11.9681822414 0.517006
-11.4695111576 0.51576
-10.9708397978 0.497184
-10.4721681621 0.482083
-9.97349625028 0.466165
-9.47482406244 0.45353
-8.97615159853 0.433422
-8.47747885849 0.419941
-7.9788058423 0.40522
-7.48013254993 0.361704
-6.98145898134 0.317032
-6.4827851365 0.298148
-5.98411101538 0.21401
-5.48543661795 0.0811522
-4.98676194417 0.0494405
-4.488086994 0.0614616
-3.98941176742 0.0710202
-3.4907362644 0.0750728
-2.9920604849 0.0783681
-2.49338442889 0.0836851
-1.99470809633 0.0820834
-1.49603148719 0.0905804
-0.997354601448 0.10052
-0.498677439062 0.106861
0 0.112508
0.498677715769 0.114253
0.997355708278 0.113669
1.49603397756 0.112179
1.99471252365 0.109156
2.49339134657 0.103873
2.99207044637 0.101992
3.49074982307 0.106782
3.98942947671 0.135675
4.48810940731 0.191957
4.98678961492 0.310934
5.48547009956 0.400215
5.98415086127 0.38626
6.48283190008 0.393757
6.98151321601 0.406322
7.48019480912 0.353934
7.97887667941 0.27064
8.47755882694 0.175378
8.97624125173 0.124292
9.47492395382 0.0831095
9.97360693323 0.0293763
10.47229019 0
10.9709737242 0.00699686
11.4696575358 0.0218641
11.9683416248 0.029943
12.4670259913 0.0350319
12.9657106354 0.035659
13.464395557 0.0325403
13.9630807562 0.0331967
14.461766233 0.0392969
14.9604519875 0.0443285
15.4591380196 0.0529969
15.9578243295 0.0574251
16.4565109171 0.0604075
16.9551977825 0.0401682
17.4538849258 0.0411459
17.9525723468 0.053939
18.4512600458 0.065698
18.9499480226 0.0972327
19.4486362774 0.184317
19.9473248102 0.294704
20.446013621 0.370184
20.9447027098 0.360009
21.4433920767 0.372734
21.9420817217 0.419561
22.4407716449 0.479797
22.9394618462 0.488342
23.4381523257 0.452206
23.9368430835 0.372313
24.4355341195 0.321757
24.9342254338 0.275807
