-24.9328108272 1.16144
-24.4341612614 1.16349
-23.9355114247 1.17368
-23.436861317 1.14944
-22.9382109384 1.10483
-22.4395602887 1.0969
-21.940909368 1.13605
-21.4422581762 1.15345
-20.9436067132 1.11312
-20.4449549791 1.0771
-19.9463029737 1.05897
-19.4476506972 1.02602
-18.9489981494 0.97081
-18.4503453303 0.926613
-17.9516922399 0.878031
-17.4530388781 0.845599
-16.9543852449 0.801554
-16.4557313403 0.771662
-15.9570771642 0.757902
-15.4584227166 0.799473
-14.9597679975 0.842575
-14.4611130069 0.827038
-13.9624577446 0.782186
-13.4638022108 0.755984
-12.9651464052 0.737766
-12.466490328 0.720953
-11.9678339791 0.705148
-11.4691773583 0.65314
-10.9705204658 0.668941
-10.4718633015 0.738178
-9.9732058653 0.73269
-9.47454815722 0.73547
-8.9758901772 0.688877
-8.47723192523 0.641559
-7.97857340127 0.608383
-7.47991460529 0.541501
-6.98125553724 0.501195
-6.48259619711 0.487772
-5.98393658485 0.481953
-5.48527670043 0.454063
-4.98661654382 0.401476
-4.48795611499 0.369203
-3.9892954139 0.35114
-3.49063444053 0.294164
-2.99197319483 0.233696
-2.49331167677 0.171103
-1.99464988633 0.129071
-1.49598782346 0.102846
-0.997325488139 0.0952343
-0.49866288033 0.0776367
0 0.0217381
0.498663152884 0
0.997326578355 0.0408438
1.49599027645 0.0812042
1.99465424719 0.10095
2.49331849062 0.106702
2.99198300677 0.101456
3.49064779567 0.115053
3.98931285736 0.135533
4.48797819186 0.140445
4.98664379922 0.141524
5.48530967946 0.140506
5.98397583261 0.150498
6.48264225872 0.161168
6.98130895781 0.100518
7.47997592991 0.0787766
7.97864317506 0.146475
8.4773106933 0.202262
8.97597848464 0.226019
9.47464654914 0.271208
9.97331488681 0.346661
10.4719834977 0.417637
10.9706523818 0.472755
11.4693215392 0.531983
11.96799097 0.591387
12.466660674 0.644907
12.9653306515 0.690897
13.4640009023 0.746865
13.9626714266 0.810635
14.4613422244 0.875242
14.9600132957 0.917271
15.4586846405 0.95158
15.9573562589 0.973386
16.4560281509 1.00701
16.9547003166 1.04632
17.4533727559 1.01759
17.9520454689 0.995946
18.4507184557 0.987072
18.9493917162 0.986734
19.4480652506 0.979685
19.9467390587 0.939269
20.4454131408 0.872515
20.9440874967 0.80696
21.4427621266 0.731997
21.9414370305 0.708887
22.4401122083 0.682005
22.9387876602 0.675336
23.4374633861 0.66365
23.9361393862 0.66142
24.4348156604 0.676283
24.9334922087 0.723911
