-24.9737647222 1.08111
-24.4742940744 1.07777
-23.974823237 1.04617
-23.4753522103 1.03238
-22.975880994 1.01725
-22.4764095883 1.00213
-21.9769379931 0.973811
-21.4774662083 0.964423
-20.9779942341 0.927586
-20.4785220703 0.895664
-19.9790497169 0.840745
-19.479577174 0.732045
-18.9801044415 0.620352
-18.4806315194 0.561546
-17.9811584077 0.513057
-17.4816851064 0.486141
-16.9822116154 0.406598
-16.4827379348 0.29791
-15.9832640646 0.219345
-15.4837900047 0.202673
-14.9843157551 0.180907
-14.4848413158 0.14411
-13.9853666867 0.0830003
-13.485891868 0.0232427
-12.9864168596 0.0108567
-12.4869416613 0.00482394
-11.9874662734 0.00480365
-11.4879906956 0.00373639
-10.9885149281 0.0109453
-10.4890389708 0.0127793
-9.98956282361 0.00755232
-9.49008648664 0
-8.99060995983 0.00716606
-8.49113324316 0.0491257
-7.99165633663 0.0699741
-7.49217924023 0.0757777
-6.99270195393 0.0822191
-6.49322447773 0.0805821
-5.99374681161 0.0956745
-5.49426895557 0.095785
-4.99479090958 0.0961702
-4.49531267363 0.105126
-3.99583424772 0.0962272
-3.49635563182 0.0915914
-2.99687682594 0.103347
-2.49739783004 0.134169
-1.99791864412 0.163102
-1.49843926817 0.196737
-0.998959702179 0.230835
-0.499479946125 0.272087
0 0.318909
0.49948013621 0.349373
0.998960462518 0.34749
1.49844097894 0.322116
1.99792168548 0.333288
2.49740258215 0.379548
2.99688366898 0.400799
3.49636494597 0.410556
3.99584641313 0.440792
4.49532807048 0.408162
4.99480991803 0.400888
5.4942919558 0.427815
5.99377418379 0.418786
6.49325660202 0.416085
6.99273921049 0.420536
7.49222200924 0.431547
7.99170499826 0.445157
8.49118817758 0.456957
8.99067154719 0.482681
9.49015510712 0.495961
9.98963885738 0.50534
10.489122798 0.515448
10.9886069289 0.520157
11.4880912503 0.52141
11.987575762 0.524029
12.4870604641 0.533375
12.9865453566 0.53584
13.4860304395 0.527217
13.9855157128 0.53123
14.4850011766 0.536204
14.9844868309 0.525082
15.4839726756 0.483152
15.9834587108 0.423597
16.4829449365 0.372237
16.9824313527 0.361907
17.4819179594 0.341515
17.9814047566 0.321776
18.4808917444 0.32643
18.9803789228 0.337885
19.4798662917 0.341089
19.9793538512 0.342489
20.4788416014 0.351732
20.9783295421 0.373054
21.4778176734 0.404639
21.9773059954 0.461088
22.476794508 0.503566
22.9762832113 0.535555
23.4757721052 0.597937
23.9752611899 0.678052
24.4747504652 0.727054
24.9742399312 0.741887
