-24.9613016759 1.60337
-24.4620809597 1.52957
-23.9628600268 1.48039
-23.4636388771 1.41477
-22.9644175107 1.3592
-22.4651959275 1.2963
-21.9659741275 1.23372
-21.4667521107 1.17802
-20.967529877 1.13049
-20.4683074264 1.12262
-19.969084759 1.14542
-19.4698618747 1.14375
-18.9706387735 1.13607
-18.4714154553 1.16304
-17.9721919202 1.19447
-17.4729681681 1.19023
-16.973744199 1.16156
-16.4745200128 1.13457
-15.9752956097 1.06343
-15.4760709895 0.957546
-14.9768461522 0.874673
-14.4776210978 0.790615
-13.9783958263 0.734085
-13.4791703377 0.703884
-12.979944632 0.675529
-12.480718709 0.6625
-11.9814925689 0.658073
-11.4822662116 0.626747
-10.983039637 0.550845
-10.4838128452 0.448959
-9.98458583618 0.424447
-9.48535860983 0.428386
-8.98613116619 0.42581
-8.48690350522 0.392993
-7.9876756269 0.354286
-7.48844753123 0.32719
-6.98921921818 0.278402
-6.48999068774 0.204743
-5.99076193987 0.12633
-5.49153297457 0.0660317
-4.99230379181 0.0218402
-4.49307439158 0.00775669
-3.99384477386 0.00646692
-3.49461493862 0.00483323
-2.99538488585 0
-2.49615461553 0.000179299
-1.99692412764 0.0134352
-1.49769342216 0.0111681
-0.998462499073 0.0237233
-0.499231358359 0.0469659
0 0.0573201
0.499231576025 0.0552932
0.998463369732 0.0571654
1.49769538114 0.0779495
1.99692761028 0.0934892
2.49616005715 0.117151
2.99539272179 0.126337
3.4946256042 0.136795
3.99385870441 0.166974
4.49309202244 0.197345
4.9923255583 0.220492
5.49155931202 0.217952
5.99079328361 0.213314
6.4900274731 0.206121
6.98926188049 0.197857
7.48849650582 0.214526
7.9877313491 0.229233
8.48696641034 0.229608
8.98620168958 0.248966
9.48543718682 0.25947
9.98467290208 0.283128
10.4839088354 0.308869
10.9831449868 0.3295
11.4823813562 0.34521
11.9816179438 0.360143
12.4808547494 0.364066
12.9800917733 0.361219
13.4793290152 0.375959
13.9785664754 0.372756
14.4778041537 0.378907
14.9770420503 0.408031
15.4762801651 0.456962
15.9755184981 0.480693
16.4747570494 0.492074
16.973995819 0.517733
17.4732348069 0.527092
17.9724740132 0.554449
18.4717134378 0.594303
18.9709530807 0.647369
19.470192942 0.706762
19.9694330218 0.756249
20.4686733199 0.825451
20.9679138365 0.907599
21.4671545716 0.938274
21.9663955251 0.953611
22.4656366972 0.989629
22.9648780877 1.0334
23.4641196968 1.08615
23.9633615244 1.1452
24.4626035706 1.17582
24.9618458354 1.18177
