-24.928047839 0.997054
-24.4294933934 0.989869
-23.9309386825 0.969616
-23.4323837065 0.929725
-22.9338284652 0.864813
-22.4352729586 0.791728
-21.9367171866 0.79563
-21.4381611493 0.89137
-20.9396048466 1.00283
-20.4410482784 1.11353
-19.9424914448 1.18148
-19.4439343457 1.24078
-18.945376981 1.30669
-18.4468193507 1.34298
-17.9482614548 1.31398
-17.4497032932 1.31659
-16.951144866 1.3029
-16.452586173 1.25652
-15.9540272143 1.23325
-15.4554679897 1.21477
-14.9569084994 1.17481
-14.4583487431 1.11355
-13.959788721 1.07712
-13.4612284329 1.04549
-12.9626678788 0.994471
-12.4641070588 0.934344
-11.9655459727 0.888902
-11.4669846205 0.830243
-10.9684230022 0.752561
-10.4698611177 0.648857
-9.97129896706 0.51159
-9.47273655019 0.358851
-8.97417386706 0.219939
-8.47561091763 0.122374
-7.97704770188 0.0617627
-7.47848421975 0.0191395
-6.97992047123 0
-6.48135645627 0.00800846
-5.98279217484 0.0286038
-5.4842276269 0.0606253
-4.98566281243 0.130367
-4.48709773137 0.299786
-3.9885323837 0.464778
-3.48996676938 0.582774
-2.99140088837 0.609894
-2.49283474065 0.605702
-1.99426832617 0.59861
-1.4957016449 0.582072
-0.997134696807 0.554424
-0.498567481852 0.537154
0 0.532781
0.498567748783 0.534341
0.997135764533 0.510035
1.49570404729 0.471178
1.99427259708 0.390114
2.49284141394 0.318528
2.99141049791 0.271898
3.48997984903 0.254057
3.98854946732 0.256816
4.48711935283 0.248083
4.98568950559 0.237724
5.48425992563 0.225533
5.98283061299 0.20906
6.48140156771 0.198815
6.97997278982 0.197111
7.47854427935 0.197869
7.97711603635 0.197119
8.47568806084 0.192001
8.97426035286 0.186164
9.47283291245 0.181317
9.97140573964 0.181968
10.4699788345 0.188098
10.968552197 0.19173
11.4671258272 0.195021
11.9656997251 0.200843
12.4642738909 0.210356
12.9628483244 0.225353
13.4614230258 0.245685
13.9599979951 0.269529
14.4585732323 0.293246
14.9571487374 0.328786
15.4557245106 0.363652
15.9543005517 0.403725
16.4528768609 0.439379
16.9514534383 0.474686
17.4500302837 0.507937
17.9486073973 0.547063
18.4471847791 0.562324
18.9457624292 0.564446
19.4443403475 0.583584
19.9429185341 0.608928
20.4414969891 0.626762
20.9400757124 0.651539
21.4386547041 0.695825
21.9372339643 0.742314
22.435813493 0.738233
22.9343932902 0.756497
23.4329733559 0.771628
23.9315536902 0.761707
24.4301342932 0.77456
24.9287151648 0.801302
