-24.9285401133 0.923541
-24.4299758975 0.916332
-23.9314114135 0.90526
-23.4328466612 0.885799
-22.9342816406 0.871843
-22.4357163515 0.86373
-21.9371507941 0.866259
-21.4385849682 0.855886
-20.9400188738 0.84408
-20.4414525109 0.823222
-19.9428858795 0.785544
-19.4443189794 0.699804
-18.9457518107 0.613127
-18.4471843734 0.502819
-17.9486166674 0.437129
-17.4500486926 0.39829
-16.9514804491 0.400794
-16.4529119367 0.426506
-15.9543431555 0.443345
-15.4557741055 0.462131
-14.9572047865 0.505587
-14.4586351986 0.546004
-13.9600653417 0.502486
-13.4614952158 0.485785
-12.9629248209 0.498694
-12.4643541568 0.545078
-11.9657832237 0.588685
-11.4672120214 0.595715
-10.9686405499 0.580066
-10.4700688091 0.559907
-9.97149679914 0.474489
-9.47292451984 0.379049
-8.97435197122 0.310399
-8.47577915323 0.323519
-7.97720606583 0.351733
-7.478632709 0.361136
-6.98005908269 0.382074
-6.48148518688 0.416559
-5.98291102152 0.437399
-5.48433658658 0.445611
-4.98576188203 0.45718
-4.48718690783 0.47229
-3.98861166394 0.475816
-3.49003615034 0.47085
-2.99146036698 0.481125
-2.49288431383 0.487616
-1.99430799085 0.508648
-1.49573139802 0.528194
-0.997154535288 0.535625
-0.498577402627 0.532347
0 0.502898
0.498577672627 0.455264
0.99715561529 0.383354
1.49573382802 0.324548
1.99431231086 0.268617
2.49289106384 0.209595
2.991470087 0.127032
3.49004938037 0.0521534
3.98862894398 0.00987454
4.48720877788 0.00399849
4.98578888209 0.00810384
5.48436925665 0.00499625
5.9829499016 0.00227432
6.48153081697 0
6.9801120028 0.00578354
7.47869345912 0.0222892
7.97727518597 0.0472873
8.47585718337 0.0810653
8.97443945138 0.119181
9.47302199001 0.147804
9.97160479931 0.15606
10.4701878793 0.172494
10.9687712301 0.214573
11.4673548516 0.269728
11.9659387439 0.32558
12.464522907 0.37137
12.9631073411 0.41647
13.461692046 0.472058
13.9602770219 0.533504
14.4588622688 0.58136
14.9574477867 0.6355
15.4560335756 0.680411
15.9546196356 0.692582
16.4532059668 0.703986
16.9517925691 0.706288
17.4503794426 0.705488
17.9489665873 0.714785
18.4475540033 0.738903
18.9461416905 0.756986
19.4447296491 0.76832
19.9433178791 0.79267
20.4419063805 0.828295
20.9404951533 0.861754
21.4390841976 0.890771
21.9376735133 0.909936
22.4362631006 0.928853
22.9348529595 0.949156
23.43344309 0.980728
23.9320334922 1.00878
24.430624166 1.03725
24.9292151115 1.08416
