-24.9678211775 0.654474
-24.4684698302 0.654342
-23.9691182759 0.607513
-23.4697665147 0.543383
-22.9704145465 0.492595
-22.4710623713 0.467742
-21.9717099891 0.425983
-21.4723573999 0.381303
-20.9730046037 0.346103
-20.4736516004 0.340621
-19.9742983901 0.349607
-19.4749449727 0.339784
-18.9755913481 0.316798
-18.4762375165 0.312461
-17.9768834778 0.260187
-17.4775292318 0.212107
-16.9781747788 0.158932
-16.4788201185 0.113732
-15.9794652511 0.113674
-15.4801101765 0.145445
-14.9807548946 0.130411
-14.4813994055 0.14249
-13.9820437091 0.208604
-13.4826878055 0.243853
-12.9833316945 0.239094
-12.4839753763 0.245808
-11.9846188508 0.277597
-11.4852621179 0.276519
-10.9859051776 0.221972
-10.48654803 0.186111
-9.98719067503 0.192526
-9.48783311263 0.226823
-8.98847534282 0.254495
-8.48911736558 0.254697
-7.98975918089 0.206764
-7.49040078874 0.154181
-6.99104218911 0.100416
-6.49168338198 0.0726313
-5.99232436734 0.0517347
-5.49296514517 0.0238367
-4.99360571546 0.000790448
-4.49424607819 0
-3.99488623335 0.035647
-3.49552618091 0.0461154
-2.99616592087 0.0466061
-2.49680545321 0.0302039
-1.99744477791 0.0439217
-1.49808389495 0.0996852
-0.998722804325 0.118749
-0.499361506013 0.150957
0 0.145878
0.49936171373 0.126767
0.998723635194 0.110103
1.49808576441 0.155017
1.99744810138 0.212423
2.49681064614 0.245893
2.9961733987 0.288632
3.49553635906 0.347742
3.99489952726 0.408398
4.49426290329 0.517813
4.99362648719 0.631704
5.49299027896 0.741319
5.99235427863 0.848768
6.4917184862 0.894014
6.99108290169 0.931992
7.49044752512 0.994137
7.98981235651 1.08165
8.48917739586 1.15655
8.9885426432 1.23334
9.48790809854 1.2775
9.9872737619 1.30773
10.4866396333 1.32663
10.9860057127 1.34412
11.4853720002 1.34327
11.9847384958 1.3418
12.4841051995 1.3824
12.9834721113 1.41684
13.4828392312 1.46513
13.9822065593 1.53921
14.4815740955 1.57846
14.9809418399 1.5016
15.4803097924 1.43554
15.9796779532 1.37782
16.4790463222 1.36284
16.9784148995 1.33658
17.477783685 1.31792
17.9771526787 1.31242
18.4765218808 1.30343
18.9758912911 1.27663
19.4752609098 1.19307
19.9746307368 1.08855
20.4740007721 1.02117
20.9733710158 1.00442
21.4727414679 0.960093
21.9721121283 0.961292
22.4714829972 0.969893
22.9708540745 0.990742
23.4702253602 1.02171
23.9695968544 1.0479
24.4689685571 1.07071
24.9683404682 1.07019
