-24.9579133459 0.979815
-24.4587605334 0.979161
-23.9596074987 0.978697
-23.4604542416 0.98102
-22.9613007622 0.982934
-22.4621470604 1.01488
-21.9629931363 1.01831
-21.4638389897 1.00542
-20.9646846207 1.04797
-20.4655300293 1.06327
-19.9663752154 1.03339
-19.4672201791 1.00711
-18.9680649202 1.02814
-18.4689094388 1.04129
-17.9697537348 1.05118
-17.4705978083 1.04042
-16.9714416592 1.01498
-16.4722852875 0.944834
-15.9731286931 0.847053
-15.4739718761 0.738859
-14.9748148365 0.646183
-14.4756575741 0.584687
-13.976500089 0.568517
-13.4773423812 0.576448
-12.9781844506 0.495089
-12.4790262972 0.394969
-11.9798679211 0.301574
-11.4807093221 0.254226
-10.9815505003 0.24483
-10.4823914556 0.187329
-9.9832321881 0.116812
-9.48407269764 0.0790292
-8.98491298426 0.0396394
-8.48575304794 0.0333153
-7.98659288866 0.0217295
-7.48743250639 0.0134891
-6.98827190111 0.0132991
-6.48911107281 0.012993
-5.98995002146 0.00612999
-5.49078874704 0.00471647
-4.99162724953 0.00226355
-4.49246552892 0
-3.99330358517 0.00577607
-3.49414141827 0.0131146
-2.9949790282 0.0182259
-2.49581641493 0.0181334
-1.99665357846 0.021455
-1.49749051875 0.0301503
-0.99832723578 0.0559022
-0.499163729538 0.0923372
0 0.106691
0.499163952855 0.103993
0.998328129046 0.0995149
1.4974925286 0.088842
1.99665715153 0.0900505
2.49582199785 0.0980828
2.9949870676 0.0979098
3.49415236079 0.0899966
3.99331787745 0.0974464
4.49248361758 0.093773
4.99164958122 0.0895365
5.49081576838 0.0858992
5.98998217908 0.0824626
6.48914881335 0.088128
6.9883156712 0.11241
7.48748275266 0.153185
7.98665005775 0.188135
8.48581758648 0.23271
8.98498533888 0.287124
9.48415331497 0.32247
9.98332151477 0.345623
10.4824899383 0.362595
10.9816585856 0.421462
11.4808274566 0.464194
11.9799965515 0.487388
12.4791658701 0.549943
12.9783354126 0.610407
13.4775051789 0.652703
13.9766751691 0.660352
14.4758453832 0.725903
14.9750158213 0.818675
15.4741864832 0.831559
15.9733573691 0.826208
16.472528479 0.834617
16.9716998129 0.838327
17.4708713708 0.856519
17.9700431527 0.882096
18.4692151587 0.879003
18.9683873888 0.885073
19.467559843 0.889276
19.9667325213 0.895844
20.4659054237 0.912868
20.9650785503 0.936475
21.464251901 0.967096
21.963425476 0.998273
22.4625992752 1.04015
22.9617732986 1.08577
23.4609475463 1.1211
23.9601220183 1.11944
24.4592967146 1.11087
24.9584716352 1.14038
