-24.963073083 1.02759
-24.4638167083 1.02431
-23.9645601263 1.04791
-23.4653033369 1.07011
-22.9660463402 1.05533
-22.466789136 0.988525
-21.9675317245 0.938431
-21.4682741055 0.876074
-20.9690162791 0.808571
-20.4697582452 0.782339
-19.9705000038 0.765987
-19.4712415549 0.752496
-18.9719828985 0.774109
-18.4727240346 0.794236
-17.973464963 0.807635
-17.474205684 0.821392
-16.9749461973 0.812857
-16.475686503 0.757245
-15.976426601 0.699941
-15.4771664915 0.652579
-14.9779061742 0.593382
-14.4786456493 0.545344
-13.9793849166 0.515299
-13.4801239763 0.49675
-12.9808628282 0.50946
-12.4816014723 0.509738
-11.9823399086 0.507712
-11.4830781372 0.503947
-10.9838161579 0.497833
-10.4845539708 0.495672
-9.98529157589 0.496792
-9.48602897307 0.496276
-8.98676616236 0.512062
-8.48750314375 0.569652
-7.98823991722 0.631863
-7.48897648274 0.671509
-6.9897128403 0.690242
-6.49044898988 0.764503
-5.99118493146 0.806773
-5.49192066502 0.795066
-4.99265619056 0.754309
-4.49339150804 0.72294
-3.99412661745 0.713768
-3.49486151877 0.662428
-2.99559621198 0.59084
-2.49633069707 0.403675
-1.99706497401 0.192624
-1.4977990428 0.0902355
-0.998532903402 0.0653467
-0.499266555808 0.0553245
0 0.0460453
0.499266764043 0.0404678
0.998533736338 0.0210142
1.4978009169 0.0112158
1.99706830576 0.00510369
2.49633590292 0.00148989
2.9956037084 0
3.49487172223 0.0235998
3.99413994442 0.0551248
4.49340837499 0.0657256
4.99267701395 0.0804059
5.49194586133 0.084487
5.99121491715 0.0899752
6.49048418141 0.105225
6.98975365414 0.125601
7.48902333536 0.13057
7.98829322509 0.148338
8.48756332334 0.180056
8.98683363014 0.208655
9.48610414549 0.237408
9.98537486942 0.25219
10.4846458019 0.2588
10.9839169431 0.250975
11.4831882929 0.223696
11.9824598513 0.196
12.4817316184 0.204701
12.9810035941 0.217366
13.4802757786 0.216557
13.9795481718 0.221818
14.4788207738 0.239072
14.9780935845 0.235599
15.4773666039 0.204731
15.9766398322 0.187819
16.4759132693 0.144423
16.9751869152 0.108632
17.47446077 0.0799889
17.9737348336 0.0976014
18.4730091061 0.0861756
18.9722835875 0.076133
19.4715582778 0.0727653
19.9708331771 0.0598559
20.4701082853 0.0511656
20.9693836025 0.0505912
21.4686591287 0.0571365
21.9679348639 0.0805795
22.4672108081 0.143979
22.9664869614 0.221097
23.4657633238 0.278892
23.9650398952 0.347954
24.4643166757 0.403644
24.9635936653 0.490478
