-24.9280497555 0.967381
-24.4294952718 0.97654
-23.930940523 0.987279
-23.4323855089 0.998675
-22.9338302296 1.01467
-22.4352746849 1.0467
-21.9367188749 1.09976
-21.4381627995 1.17557
-20.9396064587 1.26855
-20.4410498524 1.34967
-19.9424929806 1.30772
-19.4439358433 1.22947
-18.9453784405 1.12619
-18.446820772 1.06307
-17.948262838 1.0493
-17.4497046382 1.04396
-16.9511461728 1.05042
-16.4525874416 1.06359
-15.9540284446 1.06842
-15.4554691818 1.0717
-14.9569096532 1.08523
-14.4583498587 1.08788
-13.9597897983 1.05435
-13.4612294719 1.00331
-12.9626688795 0.959586
-12.4641080211 0.926056
-11.9655468967 0.893671
-11.4669855062 0.873112
-10.9684238495 0.863152
-10.4698619266 0.870737
-9.97129973761 0.896609
-9.47273728233 0.752733
-8.97417456078 0.470026
-8.47561157293 0.202739
-7.97704831873 0.0786722
-7.47848479816 0
-6.97992101116 0.00710805
-6.48135695772 0.0581668
-5.9827926378 0.118285
-5.48422805135 0.22248
-4.98566319835 0.360812
-4.48709807876 0.497471
-3.98853269254 0.606933
-3.48996703966 0.713409
-2.99140112009 0.769098
-2.49283493378 0.786695
-1.9942684807 0.771779
-1.49570176082 0.712701
-0.997134774098 0.657813
-0.498567520503 0.612053
0 0.591215
0.498567787449 0.54776
0.997135841877 0.465891
1.49570416332 0.361688
1.99427275182 0.234507
2.4928416074 0.157778
2.9914107301 0.128881
3.48998011996 0.130758
3.98854977701 0.148543
4.48711970129 0.154301
4.98568989283 0.160053
5.48426035167 0.165054
5.98283107784 0.162736
6.48140207138 0.155142
6.97997333233 0.159045
7.47854486071 0.162396
7.97711665657 0.160705
8.47568871993 0.157275
8.97426105085 0.153369
9.47283364934 0.146529
9.97140651544 0.139582
10.4699796492 0.142518
10.9685530506 0.149454
11.4671267198 0.155027
11.9657006567 0.162086
12.4642748614 0.17014
12.962849334 0.185573
13.4614240744 0.207844
13.9599990827 0.24012
14.4585743589 0.273109
14.9571499031 0.308709
15.4557257153 0.337985
15.9543017955 0.359576
16.4528781438 0.371197
16.9514547602 0.37234
17.4500316448 0.376459
17.9486087975 0.373223
18.4471862185 0.366499
18.9457639077 0.376698
19.4443418651 0.388892
19.9429200909 0.40042
20.4414985851 0.395692
20.9400773476 0.393519
21.4386563786 0.393707
21.937235678 0.412025
22.4358152459 0.435584
22.9343950824 0.450615
23.4329751874 0.461006
23.931555561 0.466897
24.4301362032 0.495808
24.9287171141 0.536538
