-24.9630570128 0.848858
-24.4638009574 0.827102
-23.9645446947 0.816625
-23.4652882248 0.812704
-22.9660315476 0.816773
-22.4667746631 0.816375
-21.9675175713 0.844597
-21.4682602721 0.843848
-20.9690027655 0.849307
-20.4697450516 0.875758
-19.9704871303 0.924226
-19.4712290015 0.960238
-18.9719706654 0.977806
-18.4727121217 0.994976
-17.9734533706 1.02291
-17.474194412 1.02219
-16.9749352459 0.990171
-16.4756758723 0.962978
-15.9764162911 0.936028
-15.4771565024 0.919242
-14.977896506 0.811739
-14.4786363021 0.632245
-13.9793758906 0.521967
-13.4801152714 0.523173
-12.9808544446 0.526959
-12.48159341 0.528376
-11.9823321678 0.52154
-11.4830707179 0.519446
-10.9838090603 0.528373
-10.4845471949 0.540186
-9.98528512176 0.577236
-9.48602284083 0.636996
-8.98676035209 0.716682
-8.48749765553 0.78163
-7.98823475114 0.808361
-7.48897163889 0.84155
-6.98970831876 0.890683
-6.49044479075 0.942773
-5.99118105482 0.998394
-5.49191711096 1.00802
-4.99265295916 0.946994
-4.49338859939 0.871902
-3.99412403163 0.794024
-3.49485925588 0.712906
-2.9955942721 0.626908
-2.49632908028 0.506488
-1.99706368041 0.367306
-1.49779807247 0.25347
-0.998532256429 0.171017
-0.49926623228 0.098566
0 0.0625796
0.499266440425 0.0525784
0.998533089017 0.0444181
1.49779994579 0.0174909
1.99706701077 0
2.49633428397 0.00596501
2.9956017654 0.0151543
3.49486945509 0.0145308
3.99413735306 0.019789
4.49340545932 0.0324146
4.99267377389 0.0616955
5.49194229678 0.116531
5.99121102803 0.18475
6.49047996763 0.249642
6.98974911563 0.283658
7.48901847202 0.322002
7.98828803683 0.33149
8.48755781008 0.322919
8.98682779178 0.303273
9.48609798196 0.293888
9.98536838063 0.301175
10.4846389878 0.320073
10.9839098035 0.362077
11.4831808278 0.375548
11.9824520606 0.397261
12.481723502 0.424612
12.980995152 0.424123
13.4802670106 0.432182
13.9795390778 0.450715
14.4788113537 0.449348
14.9780838383 0.445797
15.4773565316 0.43594
15.9766294335 0.423229
16.4759025442 0.387607
16.9751758637 0.314075
17.4744493919 0.290407
17.9737231289 0.27574
18.4729970746 0.317276
18.9722712292 0.356909
19.4715455927 0.358178
19.9708201649 0.402997
20.4700949461 0.496132
20.9693699361 0.597316
21.4686451351 0.602456
21.9679205429 0.591623
22.4671961597 0.575226
22.9664719855 0.546815
23.4657480202 0.547254
23.965024264 0.54892
24.4643007167 0.539916
24.9635773785 0.483238
