-24.9613688647 0.706521
-24.4621468136 0.773957
-23.9629245455 0.817346
-23.4637020602 0.805352
-22.9644793579 0.734528
-22.4652564383 0.625543
-21.9660333016 0.521383
-21.4668099478 0.463986
-20.9675863767 0.431356
-20.4683625883 0.402413
-19.9691385828 0.383204
-19.46991436 0.3742
-18.9706899199 0.365251
-18.4714652624 0.360634
-17.9722403877 0.368617
-17.4730152956 0.378589
-16.9737899862 0.378987
-16.4745644594 0.378145
-15.9753387152 0.366088
-15.4761127536 0.344314
-14.9768865745 0.340724
-14.477660178 0.354552
-13.978433564 0.37102
-13.4792067325 0.386849
-12.9799796835 0.381126
-12.480752417 0.361429
-11.9815249329 0.347046
-11.4822972313 0.329556
-10.983069312 0.294416
-10.4838411752 0.278818
-9.98461282069 0.262565
-9.48538424856 0.244095
-8.98615545878 0.232257
-8.4869264513 0.18785
-7.98769722612 0.106943
-7.48846778322 0.0326382
-6.98923812258 0
-6.49000824418 0.0161767
-5.99077814799 0.0737293
-5.49154783401 0.110246
-4.99231730221 0.11287
-4.49308655257 0.0963259
-3.99385558507 0.0553554
-3.4946243997 0.0432465
-2.99539299644 0.0498233
-2.49616137526 0.0643957
-1.99692953615 0.0371636
-1.49769747909 0.0430722
-0.998465204053 0.0422635
-0.499232711031 0.053103
0 0.0702273
0.499232929058 0.11215
0.998466076162 0.136786
1.49769944133 0.16321
1.99693302459 0.202729
2.49616682594 0.220625
2.99540084542 0.225579
3.49463508305 0.229887
3.99386953883 0.216156
4.49310421279 0.201261
4.99233910494 0.198129
5.49157421532 0.194261
5.99080954393 0.197648
6.4900450908 0.207804
6.98928085594 0.213859
7.48851683937 0.231509
7.98775304111 0.263418
8.48698946119 0.282691
8.98622609961 0.275709
9.48546295641 0.2709
9.98470003159 0.275384
10.4839373252 0.290283
10.9831748372 0.309783
11.4824125676 0.340877
11.9816505166 0.375918
12.480888684 0.394156
12.9801270699 0.403399
13.4793656743 0.483945
13.9786044972 0.549792
14.4778435387 0.591756
14.9770827988 0.650133
15.4763222775 0.722523
15.9755619748 0.724277
16.4748018907 0.670987
16.9740420253 0.643542
17.4732823786 0.667051
17.9725229505 0.687223
18.4717637412 0.691553
18.9710047505 0.699241
19.4702459786 0.725181
19.9694874255 0.739305
20.4687290912 0.76581
20.9679709757 0.845827
21.4672130789 0.975937
21.9664554011 1.15187
22.465697942 1.30388
22.9649407019 1.38717
23.4641836807 1.4157
23.9634268783 1.48296
24.4626702949 1.47468
24.9619139305 1.44486
