-24.9294354294 1.25713
-24.4308532245 1.20801
-23.9322707548 1.15043
-23.4336880201 1.09128
-22.9351050204 1.0438
-22.4365217558 0.950379
-21.9379382261 0.892577
-21.4393544313 0.894376
-20.9407703714 0.851178
-20.4421860464 0.827047
-19.9436014562 0.841419
-19.4450166008 0.841734
-18.9464314801 0.862048
-18.4478460942 0.877567
-17.9492604429 0.881679
-17.4506745262 0.879444
-16.9520883442 0.777285
-16.4535018968 0.654988
-15.9549151839 0.528383
-15.4563282055 0.417792
-14.9577409615 0.351725
-14.4591534521 0.39321
-13.960565677 0.447928
-13.4619776362 0.462661
-12.9633893298 0.48043
-12.4648007578 0.504419
-11.9662119199 0.50597
-11.4676228163 0.500343
-10.9690334469 0.485561
-10.4704438116 0.487109
-9.9718539105 0.507705
-9.47326374346 0.512723
-8.97467331046 0.542567
-8.47608261149 0.552258
-7.97749164649 0.55087
-7.47890041545 0.552032
-6.98030891832 0.551843
-6.48171715507 0.510471
-5.98312512566 0.398346
-5.48453283006 0.234759
-4.98594026824 0.0873435
-4.48734744016 0.0185058
-3.98875434578 0
-3.49016098508 0.00535458
-2.99156735801 0.0182112
-2.49297346454 0.0222201
-1.99437930464 0.0249064
-1.49578487827 0.0323384
-0.997190185393 0.0388669
-0.498595225982 0.0481532
0 0.0576451
0.498595492589 0.0718181
0.997191251819 0.0845019
1.49578727773 0.0927612
1.99438357034 0.115868
2.49298012971 0.159204
2.99157695585 0.238092
3.49017404881 0.303224
3.98877140861 0.365289
4.48736903531 0.389901
4.98596692891 0.413351
5.48456508948 0.428992
5.98316351703 0.455682
6.4817622116 0.463421
6.98036117323 0.449556
7.47896040195 0.431066
7.9775598978 0.409071
8.4761596608 0.390451
8.97475969101 0.392058
9.47335998844 0.383695
9.97196055313 0.376777
10.4705613851 0.370235
10.9691624845 0.348322
11.4677638512 0.365581
11.9663654853 0.372701
12.4649673868 0.363882
12.9635695558 0.350234
13.4621719923 0.35465
13.9607746964 0.354973
14.459377668 0.357631
14.9579809072 0.37146
15.4565844141 0.410678
15.9551881887 0.464222
16.4537922309 0.540632
16.952396541 0.571452
17.4510011188 0.583412
17.9496059644 0.608802
18.4482110778 0.63169
18.9468164592 0.653219
19.4454221085 0.667958
19.9440280257 0.678701
20.4426342109 0.706826
20.9412406641 0.737164
21.4398473854 0.765971
21.9384543748 0.77868
22.4370616323 0.778051
22.935669158 0.779108
23.4342769519 0.781303
23.932885014 0.792214
24.4314933443 0.815715
24.930101943 0.850251
