-24.9630409457 0.626155
-24.4637852095 0.665687
-23.9645292662 0.69435
-23.4652731156 0.714499
-22.9660167579 0.728204
-22.4667601929 0.749919
-21.9675034207 0.77067
-21.4682464413 0.790166
-20.9689892546 0.821132
-20.4697318605 0.861611
-19.9704742592 0.911079
-19.4712164506 0.95889
-18.9719584345 1.00558
-18.4727002112 1.06035
-17.9734417804 1.06332
-17.4741831422 1.08015
-16.9749242967 1.09844
-16.4756652436 1.13122
-15.9764059831 1.13828
-15.4771465152 1.12992
-14.9778868397 1.09016
-14.4786269567 1.0153
-13.9793668662 0.90612
-13.4801065682 0.771685
-12.9808460626 0.63851
-12.4815853494 0.568334
-11.9823244285 0.52745
-11.4830633001 0.49607
-10.983801964 0.472528
-10.4845404203 0.465956
-9.98527866886 0.492211
-9.48601670975 0.523088
-8.98675454292 0.523536
-8.48749216836 0.498165
-7.98822958605 0.472704
-7.48896679596 0.441651
-6.98970379809 0.41647
-6.49044059242 0.414421
-5.99117717892 0.418455
-5.49191355757 0.425854
-4.99264972837 0.451034
-4.49338569129 0.474863
-3.99412144631 0.473223
-3.49485699341 0.475189
-2.99559233259 0.45029
-2.49632746381 0.434778
-1.99706238706 0.430523
-1.49779710232 0.418805
-0.998531609579 0.41899
-0.49926590881 0.43068
0 0.449715
0.49926611687 0.429967
0.99853244182 0.380771
1.49779897487 0.368169
1.99706571603 0.263251
2.49633266532 0.216411
2.99559982277 0.259262
3.49486718839 0.250946
3.99413476219 0.226195
4.4934025442 0.218059
4.99267053443 0.184876
5.49193873291 0.137201
5.99120713964 0.0808903
6.49047575466 0.0210956
6.98974457797 0
7.48901360959 0.0685525
7.98828284955 0.148528
8.48755229785 0.19344
8.98682195453 0.206912
9.48609181959 0.197755
9.98536189306 0.152997
10.484632175 0.106633
10.9839026653 0.066897
11.4831733641 0.0598189
11.9824442713 0.0678605
12.4817153871 0.0914192
12.9809867114 0.106223
13.4802582442 0.115317
13.9795299855 0.12626
14.4788019355 0.139725
14.978074094 0.157067
15.4773464611 0.171952
15.9766190368 0.186768
16.4758918212 0.199024
16.9751648142 0.204203
17.4744380159 0.189119
17.9737114263 0.169012
18.4729850454 0.165227
18.9722588733 0.159205
19.4715329098 0.170367
19.9708071552 0.170638
20.4700816093 0.143941
20.9693562723 0.118643
21.468631144 0.121363
21.9679062246 0.140208
22.467181514 0.114127
22.9664570124 0.0862467
23.4657327196 0.0810593
23.9650086357 0.0557959
24.4642847607 0.0575525
24.9635610947 0.0603335
