-24.9294418421 1.30989
-24.4308595101 1.3488
-23.9322769131 1.36593
-23.4336940512 1.38132
-22.9351109242 1.39681
-22.4365275322 1.42327
-21.9379438751 1.45429
-21.4393599529 1.46917
-20.9407757655 1.49675
-20.4421913129 1.53936
-19.9436065951 1.57976
-19.4450216121 1.62687
-18.9464363637 1.70129
-18.4478508501 1.77188
-17.949265071 1.67523
-17.4506790266 1.42051
-16.9520927167 1.14001
-16.4535061414 0.887891
-15.9549193006 0.795933
-15.4563321942 0.736472
-14.9577448223 0.687729
-14.4591571847 0.675971
-13.9605692815 0.696904
-13.4619811126 0.715084
-12.9633926781 0.714259
-12.4648039777 0.710283
-11.9662150116 0.708519
-11.4676257797 0.708997
-10.9690362819 0.745435
-10.4704465183 0.793356
-9.97185648866 0.833948
-9.47326619312 0.89927
-8.97467563159 0.87765
-8.47608480403 0.823138
-7.97749371041 0.738785
-7.4789023507 0.582647
-6.98031072486 0.387606
-6.48171883285 0.22011
-5.98312667464 0.124706
-5.4845342502 0.0704515
-4.9859415595 0.0294314
-4.48734860248 0.0029461
-3.98875537913 0
-3.49016188941 0.00748593
-2.99156813328 0.00903349
-2.49297411071 0.0080694
-1.99437982166 0.00803
-1.4957852661 0.00751729
-0.997190443992 0.00975945
-0.498595355304 0.00949321
0 0.00963797
0.498595621953 0.00984054
0.997191510591 0.0117343
1.49578766595 0.0191234
1.99438408806 0.0323403
2.49298077696 0.0653929
2.99157773269 0.105064
3.49017495527 0.142942
3.98877244475 0.203273
4.48737020115 0.257509
4.98596822451 0.321619
5.48456651487 0.372062
5.98316507227 0.392174
6.48176389672 0.406493
6.98036298828 0.415225
7.47896234697 0.436671
7.97756197284 0.468814
8.4761618659 0.501921
8.97476202621 0.525484
9.47336245378 0.534587
9.97196314867 0.546166
10.4705641109 0.563007
10.9691653405 0.591124
11.4677668375 0.619194
11.966368602 0.65599
12.4649706339 0.68568
12.9635729334 0.72894
13.4621755004 0.781973
13.960778335 0.852044
14.4593814372 0.900913
14.957984807 0.924662
15.4565884446 0.955722
15.9551923499 0.989675
16.4537965229 1.01599
16.9524009637 1.04538
17.4510056723 1.07836
17.9496106488 1.05942
18.4482158932 1.07342
18.9468214055 1.07006
19.4454271858 1.07098
19.9440332341 1.08023
20.4426395504 1.08765
20.9412461348 1.09717
21.4398529873 1.08274
21.9384601079 1.04276
22.4370674967 1.00732
22.9356751537 0.980272
23.4342830789 0.961077
23.9328912724 0.955815
24.4314997342 0.976521
24.9301084643 0.989803
