-24.961335265 0.999009
-24.4621138815 0.980079
-23.9628922811 0.961125
-23.4636704638 0.98151
-22.9644484295 1.03174
-22.4652261782 1.08733
-21.96600371 1.12661
-21.4667810247 1.14409
-20.9675581224 1.14709
-20.4683350031 1.13121
-19.9691116667 1.08295
-19.4698881133 1.04959
-18.9706643427 1.04081
-18.471440355 0.976699
-17.9722161502 0.916097
-17.4729917282 0.860271
-16.973767089 0.787016
-16.4745422327 0.718864
-15.9753171591 0.680011
-15.4760918683 0.601542
-14.9768663602 0.528317
-14.4776406349 0.480453
-13.9784146923 0.460525
-13.4791885323 0.458448
-12.979962155 0.481094
-12.4807355604 0.52177
-11.9815087484 0.540181
-11.482281719 0.506977
-10.9830544722 0.459421
-10.483827008 0.400429
-9.98459932635 0.331518
-9.48537142722 0.269593
-8.98614331061 0.213481
-8.48691497649 0.148538
-7.98768642485 0.0803365
-7.48845765567 0.049001
-6.98922866893 0.022113
-6.4899994646 0.00282785
-5.99077004268 0
-5.49154040315 0.00357929
-4.99231054597 0.0109953
-4.49308047114 0.018619
-3.99385017863 0.00819883
-3.49461966843 0.00823744
-2.99538894052 0.0116755
-2.49615799487 0.0104212
-1.99692683148 0.00562425
-1.49769545031 0.00802976
-0.998463851355 0.00676905
-0.499232034591 0.0113954
0 0.0499421
0.499232252438 0.0719231
0.99846472274 0.082647
1.49769741093 0.152524
1.99693031702 0.218357
2.49616344103 0.278892
2.99539678298 0.348998
3.4946303429 0.35878
3.99386412079 0.383501
4.49309811668 0.398358
4.99233233059 0.404708
5.49156676253 0.416472
5.99080141253 0.444588
6.4900362806 0.458472
6.98927136677 0.460837
7.48850667105 0.481693
7.98774219345 0.503713
8.48697793401 0.520682
8.98621389274 0.529482
9.48545006965 0.5207
9.98468646477 0.517188
10.4839230781 0.526536
10.9831599097 0.534119
11.4823969596 0.517217
11.9816342277 0.557455
12.4808717141 0.590629
12.9801094189 0.6351
13.479347342 0.697773
13.9785854834 0.801649
14.4778238432 0.860073
14.9770624215 0.874241
15.4763012181 0.869408
15.9755402332 0.875112
16.4747794667 0.839011
16.9740189187 0.857317
17.4732585892 0.877071
17.9724984781 0.888742
18.4717385857 0.916654
18.9709789117 0.932399
19.4702194563 0.984449
19.9694602195 1.04697
20.4687012014 1.11732
20.9679424018 1.17808
21.4671838209 1.20884
21.9664254586 1.2429
22.465667315 1.25267
22.9649093901 1.24428
23.4641516839 1.23979
23.9633941964 1.23452
24.4626369277 1.2756
24.9618798778 1.31048
