-24.9613184691 1.43891
-24.4620974193 1.40097
-23.9628761527 1.36
-23.4636546692 1.30882
-22.9644329689 1.27635
-22.4652110517 1.19773
-21.9659889176 1.15267
-21.4667665665 1.07029
-20.9675439986 0.993009
-20.4683212137 0.919686
-19.9690982118 0.867456
-19.469874993 0.83549
-18.9706515571 0.851756
-18.4714279042 0.903891
-17.9722040342 0.942142
-17.4729799472 0.88079
-16.9737556431 0.796864
-16.4745311219 0.734532
-15.9753063836 0.679149
-15.4760814281 0.619335
-14.9768562554 0.563819
-14.4776308656 0.496031
-13.9784052586 0.462476
-13.4791794343 0.459979
-12.9799533928 0.496244
-12.4807271341 0.602106
-11.981500658 0.643529
-11.4822739647 0.630266
-10.9830470541 0.595042
-10.4838199261 0.542815
-9.98459258074 0.487099
-9.48536501803 0.426292
-8.98613723793 0.351576
-8.48690924041 0.261914
-7.98768102546 0.205325
-7.48845259306 0.14229
-6.98922394319 0.101656
-6.48999507583 0.0754288
-5.99076599096 0.0456925
-5.49153668857 0.0185059
-4.99230716863 0.003423
-4.49307743112 0
-3.99384747603 0.00961151
-3.49461730334 0.0209717
-2.99538691303 0.0313407
-2.49615630507 0.0362624
-1.99692547945 0.0449186
-1.49769443616 0.0674803
-0.998463175161 0.110978
-0.499231696449 0.149841
0 0.178971
0.499231914205 0.212298
0.998464046185 0.253197
1.49769639596 0.287036
1.99692896354 0.323553
2.49616174896 0.33479
2.99539475223 0.334656
3.49462797337 0.333054
3.99386141239 0.349786
4.49309506933 0.374955
4.99232894418 0.386811
5.49156303699 0.428287
5.99079734776 0.456937
6.49003187651 0.493717
6.98926662327 0.522266
7.48850158805 0.533922
7.98773677086 0.549458
8.48697217174 0.556015
8.98620779069 0.553006
9.48544362774 0.560152
9.98467968291 0.558335
10.4839159562 0.565867
10.9831524477 0.578902
11.4823891573 0.584595
11.9816260851 0.582863
12.4808632311 0.568933
12.9801005954 0.544006
13.4793381779 0.534816
13.9785759787 0.553734
14.4778139977 0.56592
14.9770522351 0.582428
15.4762906908 0.639452
15.9755293648 0.726941
16.4747682572 0.826412
16.974007368 0.874738
17.4732466971 0.915087
17.9724862447 0.953604
18.4717260108 0.994513
18.9709659952 0.993561
19.4702061982 0.995007
19.9694466196 1.00561
20.4686872596 1.02441
20.9679281181 1.06014
21.4671691951 1.11205
21.9664104907 1.14543
22.4656520049 1.17844
22.9648937377 1.18076
23.4641356891 1.17138
23.9633778592 1.177
24.4626202479 1.21918
24.9618628553 1.23459
