-24.9473449664 0.621325
-24.4484039308 0.595261
-23.9494626562 0.555548
-23.4505211427 0.46154
-22.9515793903 0.359974
-22.4526373988 0.28224
-21.9536951683 0.264751
-21.4547526988 0.281093
-20.9558099902 0.298306
-20.4568670425 0.29037
-19.9579238557 0.250652
-19.4589804297 0.222729
-18.9600367645 0.210965
-18.4610928602 0.207958
-17.9621487166 0.205383
-17.4632043337 0.208307
-16.9642597116 0.210858
-16.4653148502 0.238134
-15.9663697494 0.278038
-15.4674244093 0.327565
-14.9684788297 0.366991
-14.4695330108 0.410834
-13.9705869524 0.458988
-13.4716406546 0.503218
-12.9726941173 0.523613
-12.4737473404 0.470717
-11.974800324 0.343034
-11.4758530681 0.223598
-10.9769055725 0.13666
-10.4779578373 0.0503411
-9.97900986249 0
-9.48006164799 0.0208577
-8.98111319379 0.0410708
-8.48216449986 0.0420042
-7.98321556619 0.0305284
-7.48426639273 0.0167076
-6.98531697948 0.00668046
-6.48636732639 0.00782367
-5.98741743345 0.0375261
-5.48846730062 0.0574174
-4.98951692789 0.0785116
-4.49056631523 0.101213
-3.99161546261 0.11291
-3.49266437 0.097281
-2.99371303738 0.0911912
-2.49476146473 0.0732119
-1.99580965201 0.0559173
-1.49685759921 0.0410435
-0.997905306287 0.0291915
-0.498952773227 0.0179635
0 0.0178347
0.498953013419 0.027402
0.997906267056 0.0264898
1.49685976094 0.0282269
1.99581349509 0.0339015
2.49476746953 0.0394117
2.9937216843 0.0426735
3.49267613942 0.0568489
3.9916308349 0.0664686
4.49058577079 0.0599602
4.9895409471 0.0697688
5.48849636386 0.0766087
5.9874520211 0.085597
6.48640791884 0.104774
6.98536405711 0.125241
7.48432043593 0.134883
7.98327705534 0.140581
8.48223391534 0.144746
8.98119101598 0.183854
9.48014835728 0.198378
9.97910593926 0.212123
10.4780637619 0.238417
10.9770218254 0.271633
11.4759801295 0.292588
11.9749386745 0.294487
12.4738974603 0.339354
12.9728564869 0.408317
13.4718157544 0.486085
13.9707752628 0.54006
14.469735012 0.607026
14.9686950023 0.664709
15.4676552334 0.720948
15.9666157056 0.782546
16.4655764188 0.855301
16.9645373731 0.877047
17.4634985684 0.902982
17.9624600048 0.912806
18.4614216823 0.927974
18.9603836009 0.938062
19.4593457608 0.945678
19.9583081618 0.963444
20.4572708041 0.964968
20.9562336876 0.964948
21.4551968124 0.983222
21.9541601784 0.998347
22.4531237858 1.01553
22.9520876346 1.03861
23.4510517247 1.05861
23.9500160563 1.09176
24.4489806292 1.12319
24.9479454436 1.17374
