-24.9677855447 0.528961
-24.4684349055 0.467559
-23.9690840597 0.454449
-23.469733007 0.485723
-22.9703817476 0.497744
-22.4710302814 0.504892
-21.9716786083 0.492012
-21.4723267284 0.472424
-20.9729746417 0.463639
-20.4736223481 0.46448
-19.9742698476 0.480482
-19.4749171402 0.510022
-18.9755642259 0.507176
-18.4762111047 0.434079
-17.9768577765 0.327979
-17.4775042413 0.226133
-16.9781504992 0.172007
-16.4787965501 0.161352
-15.979442394 0.131686
-15.4800880308 0.0961
-14.9807334606 0.0678781
-14.4813786833 0.0246941
-13.982023699 0
-13.4826685075 0.00305216
-12.983313109 0.0337502
-12.4839575033 0.075659
-11.9846016905 0.149522
-11.4852456706 0.221159
-10.9858894434 0.275208
-10.4865330091 0.316268
-9.98717636761 0.347971
-9.48781951887 0.340956
-8.9884624629 0.318128
-8.48910519967 0.347834
-7.98974772918 0.332258
-7.4903900514 0.275968
-6.99103216633 0.22229
-6.49167407394 0.205767
-5.99231577421 0.153557
-5.49295726715 0.11834
-4.99359855272 0.108998
-4.49423963091 0.131368
-3.99488050171 0.170143
-3.4955211651 0.19302
-2.99616162106 0.204833
-2.49680186958 0.24491
-1.99744191064 0.258915
-1.49808174423 0.254686
-0.998721370332 0.255888
-0.499360788926 0.271534
0 0.297161
0.499360996463 0.331461
0.998722200478 0.359876
1.49808361206 0.392087
1.99744523123 0.431541
2.496807058 0.457248
2.99616909238 0.48175
3.4955313344 0.534013
3.99489378407 0.620105
4.49425644139 0.723405
4.9936193064 0.763328
5.4929823791 0.811678
5.99234565951 0.850319
6.49170914765 0.894186
6.99107284353 0.942656
7.49043674717 0.920295
7.98980085858 0.895732
8.48916517778 0.917285
8.98852970479 0.986197
9.48789443962 1.07905
9.98725938228 1.16525
10.4866245328 1.21747
10.9859898912 1.26724
11.4853554575 1.3283
11.9847212316 1.35461
12.4840872137 1.33239
12.9834534037 1.34289
13.4828198017 1.36626
13.9821864076 1.36303
14.4815532215 1.30513
14.9809202434 1.23718
15.4802874733 1.19661
15.9796549112 1.19242
16.4790225572 1.20455
16.9783904112 1.23361
17.4777584733 1.29012
17.9771267435 1.2774
18.4764952218 1.19024
18.9758639082 1.11759
19.4752328028 1.08909
19.9746019055 1.07015
20.4739712163 1.08129
20.9733407354 1.1091
21.4727104626 1.1166
21.9720803981 1.09031
22.4714505417 1.05428
22.9708208937 1.04233
23.4701914539 1.05806
23.9695622223 1.02701
24.4689331991 0.980654
24.9683043841 0.960339
