-24.9280516682 0.941818
-24.4294971467 0.952227
-23.9309423599 0.962728
-23.4323873078 0.974595
-22.9338319905 0.987653
-22.4352764079 1.00118
-21.9367205598 1.01554
-21.4381644464 1.02616
-20.9396080676 1.02967
-20.4410514233 1.01833
-19.9424945135 0.990373
-19.4439373381 0.951714
-18.9453798972 0.914092
-18.4468221906 0.897003
-17.9482642185 0.902272
-17.4497059806 0.923152
-16.951147477 0.953643
-16.4525887077 0.996234
-15.9540296725 1.02694
-15.4554703716 1.04137
-14.9569108048 1.02832
-14.4583509721 0.997082
-13.9597908735 0.965621
-13.4612305089 0.921625
-12.9626698783 0.872416
-12.4641089816 0.828876
-11.9655478189 0.813322
-11.4669863901 0.818749
-10.9684246951 0.816456
-10.469862734 0.813491
-9.97130050665 0.829543
-9.47273801305 0.84313
-8.97417525316 0.792732
-8.47561222695 0.586285
-7.97704893439 0.362516
-7.47848537543 0.155055
-6.97992155004 0.0244157
-6.4813574582 0
-5.98279309985 0.0852601
-5.48422847498 0.257219
-4.98566358353 0.411631
-4.48709842548 0.542
-3.98853300079 0.650417
-3.48996730943 0.734539
-2.99140135135 0.763982
-2.49283512653 0.74932
-1.99426863493 0.656557
-1.49570187651 0.544571
-0.997134851238 0.463233
-0.49856755908 0.391763
0 0.331951
0.498567826038 0.243892
0.99713591907 0.145645
1.49570427913 0.100844
1.99427290625 0.102217
2.49284180048 0.122221
2.99141096184 0.147936
3.48998039036 0.191382
3.9885500861 0.22663
4.48712004907 0.258925
4.98569027932 0.233992
5.48426077688 0.212206
5.98283154178 0.231507
6.48140257407 0.214865
6.97997387378 0.159158
7.47854544093 0.12939
7.97711727558 0.11918
8.47568937774 0.113918
8.97426174747 0.111701
9.47283438479 0.108454
9.97140728973 0.106988
10.4699804623 0.103516
10.9685539026 0.10252
11.4671276107 0.100629
11.9657015865 0.0970327
12.4642758301 0.0931385
12.9628503416 0.0904647
13.4614251209 0.0916264
13.9600001681 0.0943791
14.4585754833 0.103603
14.9571510665 0.125488
15.4557269177 0.15269
15.9543030369 0.163277
16.4528794242 0.178378
16.9514560796 0.176206
17.4500330032 0.196059
17.948610195 0.207341
18.447187655 0.247267
18.9457653833 0.279769
19.4443433799 0.30764
19.9429216448 0.329269
20.441500178 0.35876
20.9400789797 0.392001
21.4386580498 0.466778
21.9372373884 0.530683
22.4358169954 0.576894
22.9343968711 0.561126
23.4329770152 0.559297
23.9315574281 0.568915
24.4301381095 0.591941
24.9287190597 0.616368
