-24.9677677336 1.11819
-24.4684174485 1.11709
-23.9690669567 0.975554
-23.4697162583 0.763347
-22.9703653531 0.666382
-22.4710142413 0.642052
-21.9716629227 0.62423
-21.4723113973 0.628618
-20.9729596652 0.662028
-20.4736077263 0.66607
-19.9742555807 0.65798
-19.4749032282 0.611852
-18.9755506689 0.568934
-18.4761979027 0.515677
-17.9768449297 0.453707
-17.4774917499 0.371278
-16.9781383631 0.234858
-16.4787847694 0.135644
-15.9794309688 0.075562
-15.4800769613 0.0297094
-14.9807227468 0.00644606
-14.4813683254 0
-13.9820136969 0.00147122
-13.4826588615 0.0127496
-12.983303819 0.0383378
-12.4839485695 0.0777876
-11.984593113 0.130244
-11.4852374494 0.171826
-10.9858815787 0.219385
-10.4865255009 0.251416
-9.98716921605 0.259978
-9.48781272403 0.272633
-8.98845602487 0.277432
-8.48909911854 0.265849
-7.98974200504 0.248759
-7.49038468434 0.24351
-6.99102715644 0.211326
-6.49166942131 0.172368
-5.99231147894 0.148428
-5.49295332932 0.141587
-4.99359497242 0.136765
-4.49423640824 0.131852
-3.99487763675 0.147236
-3.49551865794 0.166765
-2.9961594718 0.187596
-2.4968000783 0.176386
-1.99744047744 0.161661
-1.49808066919 0.113417
-0.998720653549 0.0651778
-0.49936043049 0.103721
0 0.103034
0.499360637937 0.121208
0.998721483336 0.139152
1.49808253621 0.178655
1.99744379658 0.293496
2.49680526447 0.399504
2.99616693987 0.480295
3.49552882282 0.535512
3.99489091333 0.584442
4.49425321141 0.630925
4.99361571707 0.684416
5.49297843034 0.7522
5.99234135124 0.846182
6.49170447977 0.832093
6.99106781595 0.819631
7.4904313598 0.844219
7.98979511133 0.898635
8.48915907056 0.939566
8.98852323751 0.968909
9.48788761219 0.994102
9.98725219461 0.996431
10.4866169848 1.00962
10.9859819828 1.0251
11.4853471885 1.03262
11.9847126021 1.03673
12.4840782235 1.03062
12.9834440527 1.05448
13.4828100898 1.11468
13.9821763348 1.16585
14.4815427876 1.18297
14.9809094484 1.18035
15.4802763171 1.1843
15.9796433937 1.18034
16.4790106782 1.14396
16.9783781707 1.09731
17.4777458713 1.08366
17.9771137798 1.08258
18.4764818963 1.10765
18.9758502208 1.15769
19.4752187534 1.21626
19.9745874941 1.25967
20.4739564428 1.2778
20.9733255996 1.2818
21.4726949646 1.23765
21.9720645376 1.19997
22.4714343188 1.17737
22.9708043082 1.16506
23.4701745057 1.19877
23.9695449114 1.24504
24.4689155253 1.28201
24.9682863474 1.30557
