-24.9600531361 1.36881
-24.4608573826 1.47168
-23.9616614127 1.58203
-23.4624652264 1.68487
-22.9632688237 1.7717
-22.4640722045 1.86662
-21.9648753689 1.94033
-21.4656783168 2.01814
-20.9664810482 2.04631
-20.467283563 2.08316
-19.9680858613 2.11104
-19.4688879431 2.05252
-18.9696898082 1.99533
-18.4704914568 1.92951
-17.9712928887 1.86058
-17.472094104 1.79996
-16.9728951026 1.74783
-16.4736958846 1.64433
-15.9744964498 1.50678
-15.4752967983 1.30223
-14.9760969301 1.14823
-14.4768968451 1.0911
-13.9776965433 1.06761
-13.4784960248 1.03203
-12.9792952894 0.965848
-12.4800943371 0.883247
-11.980893168 0.764434
-11.4816917821 0.660531
-10.9824901792 0.574718
-10.4832883594 0.479314
-9.98408632264 0.404005
-9.48488406894 0.355081
-8.98568159826 0.293713
-8.48647891058 0.221336
-7.98727600588 0.133539
-7.48807288414 0.045559
-6.98886954535 0.0183601
-6.48966598947 0.014699
-5.9904622165 0.0193463
-5.49125822641 0.0221297
-4.99205401918 0.0174487
-4.49284959479 0.0116883
-3.99364495323 0.00602153
-3.49444009447 0.00399404
-2.9952350185 0.00441487
-2.49602972528 0.00178925
-1.99682421482 0.00166824
-1.49761848707 0
-0.998412542038 0.000673404
-0.499206379685 0.00457271
0 0.00680149
0.499206597039 0.0093332
0.998413411452 0.00860253
1.49762044326 0.0158858
1.99682769248 0.02482
2.49603515913 0.0461612
2.99524284323 0.0881049
3.4944507448 0.166255
3.99365886387 0.230994
4.49286720045 0.299751
4.99207575455 0.38251
5.49128452621 0.471095
5.99049351543 0.540459
6.48970272225 0.595167
6.98891214667 0.641858
7.48812178872 0.628458
7.98733164842 0.62117
8.48654172579 0.636857
8.98575202084 0.6446
9.4849625336 0.651088
9.98417326408 0.635635
10.4833842123 0.618991
10.9825953783 0.609969
11.4818067621 0.606911
11.9810183637 0.6077
12.4802301831 0.610152
12.9794422203 0.592406
13.4786544754 0.59321
13.9778669484 0.595026
14.4770796393 0.593076
14.9762925481 0.591114
15.4755056749 0.588425
15.9747190196 0.604329
16.4739325823 0.612888
16.973146363 0.60823
17.4723603617 0.61179
17.9715745785 0.612178
18.4707890133 0.609765
18.9700036661 0.609311
19.4692185371 0.613463
19.9684336262 0.611297
20.4676489335 0.61871
20.9668644588 0.628992
21.4660802024 0.63806
21.9652961641 0.635426
22.4645123441 0.646181
22.9637287423 0.675967
23.4629453587 0.678892
23.9621621935 0.674204
24.4613792465 0.670837
24.9605965178 0.645803
