-24.9629767084 0.954552
-24.4637222484 0.985704
-23.9644675816 1.01698
-23.465212708 1.04766
-22.9659576275 1.07654
-22.4667023402 1.1044
-21.967446846 1.13267
-21.4681911448 1.15946
-20.9689352368 1.18095
-20.4696791218 1.19389
-19.9704227998 1.19575
-19.4711662708 1.18536
-18.9719095349 1.16247
-18.4726525919 1.14525
-17.9733954419 1.14278
-17.4741380848 1.15579
-16.9748805207 1.19121
-16.4756227494 1.23598
-15.9763647711 1.255
-15.4771065856 1.26258
-14.977848193 1.26097
-14.4785895932 1.26041
-13.9793307862 1.25722
-13.4800717721 1.24185
-12.9808125507 1.23113
-12.481553122 1.171
-11.9822934861 1.08917
-11.483033643 1.00854
-10.9837735925 0.945955
-10.4845133347 0.885555
-9.98525286964 0.82678
-9.48599219719 0.717551
-8.98673131737 0.585461
-8.48747023017 0.472999
-7.98820893556 0.400581
-7.48894743353 0.310426
-6.98968572406 0.24157
-6.49042380713 0.223803
-5.99116168272 0.230337
-5.49189935082 0.23774
-4.9926368114 0.244324
-4.49337406445 0.249574
-3.99411110996 0.252798
-3.49484794789 0.258812
-2.99558457824 0.268285
-2.49632100099 0.281968
-1.99705721611 0.290002
-1.49779322359 0.296164
-0.998529023408 0.285851
-0.499264615551 0.260193
0 0.250685
0.499264823266 0.262337
0.998529854263 0.270224
1.49779509301 0.297994
1.99706053953 0.33914
2.49632619383 0.335695
2.99559205594 0.333716
3.49485812586 0.327966
3.99412440364 0.321455
4.49339088927 0.307883
4.99265758277 0.304049
5.49192448418 0.324051
5.99119159349 0.357137
6.49045891074 0.418345
6.98972643594 0.524596
7.4889941691 0.629276
7.98826211025 0.610804
8.48753025941 0.573752
8.98679861659 0.544047
9.48606718181 0.530712
9.98533595508 0.539044
10.4846049364 0.535732
10.9838741259 0.526497
11.4831435234 0.508245
11.9824131291 0.481564
12.481682943 0.443455
12.980952965 0.367152
13.4802231952 0.326059
13.9794936336 0.295376
14.4787642802 0.276755
14.978035135 0.315687
15.4773061982 0.327747
15.9765774696 0.308377
16.4758489492 0.286111
16.9751206372 0.233844
17.4743925335 0.191198
17.9736646382 0.151792
18.4729369513 0.113286
18.9722094727 0.0694896
19.4714822025 0.0364549
19.9707551407 0.0259571
20.4700282874 0.0140964
20.9693016425 0.00141188
21.4685752061 0
21.9678489782 0.00210177
22.4671229588 0.00523802
22.966397148 0.00760216
23.4656715457 0.00412665
23.9649461519 0.00349729
24.4642209667 0.00232944
24.9634959901 0.00309707
