-24.9534509318 1.41527
-24.4543875215 1.37075
-23.9553238827 1.2956
-23.4562600153 1.20728
-22.9571959193 1.16536
-22.4581315947 1.12744
-21.9590670415 1.05763
-21.4600022596 0.910232
-20.9609372491 0.815552
-20.4618720098 0.722434
-19.9628065418 0.638287
-19.463740845 0.517839
-18.9646749195 0.41716
-18.4656087652 0.278771
-17.9665423821 0.14626
-17.4674757701 0.0800136
-16.9684089292 0.0490032
-16.4693418595 0.0327044
-15.9702745608 0.0146339
-15.4712070332 0
-14.9721392767 0.000499893
-14.4730712911 0.00607716
-13.9740030766 0.0342081
-13.474934633 0.0780823
-12.9758659604 0.157038
-12.4767970587 0.279794
-11.9777279279 0.382758
-11.478658568 0.413417
-10.979588979 0.37558
-10.4805191607 0.302206
-9.98144911333 0.247333
-9.48237883671 0.213037
-8.98330833085 0.162757
-8.48423759574 0.144781
-7.98516663134 0.139816
-7.48609543764 0.144727
-6.98702401461 0.150915
-6.48795236223 0.158122
-5.98888048048 0.159352
-5.48980836933 0.158442
-4.99073602876 0.160743
-4.49166345875 0.158332
-3.99259065928 0.159256
-3.49351763032 0.157442
-2.99444437184 0.152234
-2.49537088384 0.147737
-1.99629716627 0.145438
-1.49722321913 0.145282
-0.998149042388 0.146601
-0.499074636018 0.142205
0 0.135662
0.49907486569 0.130799
0.998149961072 0.127736
1.49722528617 0.128335
1.99630084101 0.131146
2.49537662561 0.144599
2.99445264 0.169296
3.4935288842 0.212587
3.99260535822 0.283206
4.4916820621 0.291181
4.99075899586 0.30068
5.48983615951 0.297797
5.98891355309 0.286346
6.48799117662 0.313416
6.98706903011 0.387096
7.48614711359 0.450345
7.98522542709 0.504031
8.48430397062 0.532966
8.98338274421 0.537079
9.48246174788 0.54684
9.98154098166 0.54735
10.4806204456 0.551133
10.9797001396 0.559245
11.4787800638 0.668349
11.9778602183 0.773194
12.4769406029 0.892077
12.9760212178 0.992019
13.4751020629 1.06431
13.9741831384 1.06979
14.4732644441 1.02784
14.9723459802 1.01854
15.4714277466 1.02832
15.9705097434 1.00061
16.4695919706 0.99217
16.9686744283 1.0146
17.4677571164 1.0195
17.9668400349 1.01221
18.4659231839 1.01249
18.9650065635 1.01918
19.4640901736 1.02252
19.9631740142 1.02861
20.4622580854 1.05085
20.9613423873 1.09787
21.4604269197 1.15754
21.9595116828 1.18339
22.4585966766 1.20011
22.9576819011 1.246
23.4567673563 1.30955
23.9558530422 1.34015
24.4549389589 1.37085
24.9540251064 1.39846
