-24.9633503522 1.13971
-24.4640884435 1.14765
-23.964826327 1.15034
-23.4655640026 1.15398
-22.9663014704 1.15158
-22.4670387304 1.14975
-21.9677757825 1.15222
-21.4685126266 1.13705
-20.9692492629 1.12399
-20.4699856912 1.0925
-19.9707219116 1.0465
-19.471457924 1.00475
-18.9721937285 0.975219
-18.4729293249 0.930411
-17.9736647133 0.860259
-17.4743998937 0.789374
-16.975134866 0.698208
-16.4758696302 0.629491
-15.9766041863 0.570543
-15.4773385344 0.518994
-14.9780726743 0.455266
-14.478806606 0.421899
-13.9795403296 0.425021
-13.480273845 0.452546
-12.9810071521 0.48704
-12.4817402511 0.553823
-11.9824731418 0.616655
-11.4832058243 0.67343
-10.9839382985 0.758633
-10.4846705644 0.795616
-9.98540262194 0.8335
-9.48613447119 0.870552
-8.98686611209 0.835559
-8.48759754462 0.79379
-7.98832876877 0.762686
-7.48905978451 0.711268
-6.98979059184 0.622244
-6.49052119072 0.48464
-5.99125158115 0.348273
-5.4919817631 0.21468
-4.99271173655 0.0984239
-4.4934415015 0.0345294
-3.99417105791 0.00862536
-3.49490040578 0
-2.99562954508 0.00174478
-2.4963584758 0.00922427
-1.99708719792 0.0293881
-1.49781571141 0.0618224
-0.998544016271 0.0966855
-0.499272112471 0.110497
0 0.104992
0.499272321165 0.107515
0.998544851037 0.12018
1.49781758964 0.138417
1.99709053699 0.163332
2.4963636931 0.190253
2.99563705799 0.224147
3.49491063169 0.236755
3.9941844142 0.253621
4.49345840555 0.273358
4.99273260575 0.272815
5.49200701482 0.281011
5.99128163279 0.287994
6.49055645966 0.276008
6.98983149545 0.267987
7.48910674019 0.267141
7.9883821939 0.272089
8.48765785658 0.293898
8.98693372826 0.29778
9.48620980895 0.300123
9.98548609868 0.328288
10.4847625975 0.374125
10.9840393053 0.44021
11.4833162222 0.528506
11.9825933483 0.591593
12.4818706834 0.627971
12.9811482277 0.656242
13.4804259812 0.677469
13.9797039438 0.693416
14.4789821157 0.73351
14.9782604967 0.8244
15.477539087 0.904831
15.9768178865 0.950557
16.4760968953 0.969511
16.9753761134 0.987698
17.4746555407 0.98301
17.9739351774 0.963892
18.4732150235 0.94914
18.9724950788 0.973242
19.4717753436 0.998238
19.9710558177 1.00865
20.4703365013 1.01437
20.9696173943 1.02764
21.4688984967 1.04671
21.9681798086 1.06079
22.46746133 1.05485
22.9667430608 1.03822
23.4660250012 1.01765
23.9653071511 1.00561
24.4645895106 0.996286
24.9638720796 0.986231
