-24.9678389993 1.19658
-24.4684872978 1.14949
-23.9691353892 1.04169
-23.4697832736 0.935627
-22.9704309509 0.837577
-22.4710784211 0.784161
-21.9717256843 0.750729
-21.4723727403 0.697531
-20.9730195892 0.640573
-20.473666231 0.609165
-19.9743126656 0.589914
-19.4749588931 0.558043
-18.9756049133 0.51733
-18.4762507264 0.508877
-17.9768963323 0.529429
-17.4775417309 0.561729
-16.9781869222 0.569594
-16.4788319063 0.572853
-15.9794766831 0.592558
-15.4801212526 0.614192
-14.9807656148 0.633126
-14.4814097697 0.667162
-13.9820537172 0.695272
-13.4826974573 0.679281
-12.9833409901 0.686003
-12.4839843155 0.675289
-11.9846274334 0.665265
-11.485270344 0.67258
-10.9859130471 0.61308
-10.4865555427 0.590497
-9.98719783088 0.579725
-9.48783991155 0.581365
-8.98848178471 0.53096
-8.48912345036 0.495493
-7.98976490846 0.476044
-7.49040615901 0.457806
-6.99104720199 0.3986
-6.49168803739 0.329882
-5.99232866518 0.269397
-5.49296908536 0.244563
-4.9936092979 0.216816
-4.49424930279 0.186665
-3.99488910002 0.154503
-3.49552868957 0.127597
-2.99616807142 0.106673
-2.49680724556 0.0845985
-1.99744621197 0.0467512
-1.49808497063 0.040022
-0.998723521534 0.0553909
-0.499361864663 0.0751854
0 0.0836258
0.49936207247 0.0806663
0.998724352765 0.0616789
1.4980868409 0.0128762
1.99744953689 0
2.49681244075 0.0531169
2.99617555249 0.0929379
3.49553887214 0.169129
3.9949023997 0.237042
4.4942661352 0.323401
4.99363007865 0.432319
5.49299423007 0.559102
5.99235858946 0.655577
6.49172315686 0.712422
6.99108793226 0.837172
7.49045291569 0.976301
7.98981810717 1.11981
8.48918350671 1.25127
8.98854911432 1.33443
9.48791493003 1.4332
9.98728095384 1.51068
10.4866471858 1.5353
10.9860136258 1.57182
11.4853802741 1.58806
11.9847471305 1.62288
12.484114195 1.68378
12.9834814678 1.72932
13.4828489488 1.77573
13.9822166381 1.82805
14.4815845355 1.86723
14.9809526413 1.90864
15.4803209553 1.92148
15.9796894776 1.9029
16.4790582082 1.89029
16.9784271472 1.87924
17.4777962945 1.87564
17.9771656502 1.89681
18.4765352142 1.91977
18.9759049866 1.90059
19.4752749674 1.87458
19.9746451567 1.84906
20.4740155543 1.77744
20.9733861605 1.67536
21.4727569751 1.59647
21.9721279981 1.54488
22.4714992297 1.47026
22.9708706698 1.38881
23.4702423184 1.32074
23.9696141756 1.24958
24.4689862413 1.25197
24.9683585156 1.195
