-24.9402709153 1.11473
-24.4414715626 1.10084
-23.9426719628 1.06627
-23.4438721159 1.00925
-22.9450720218 0.994694
-22.4462716805 1.02459
-21.947471092 1.05526
-21.4486702562 1.08454
-20.9498691731 1.11202
-20.4510678428 1.08358
-19.9522662651 1.06308
-19.45346444 1.07272
-18.9546623676 1.06199
-18.4558600477 1.03712
-17.9570574803 1.05953
-17.4582546655 1.09607
-16.9594516031 1.10419
-16.4606482932 1.09091
-15.9618447358 1.01506
-15.4630409307 0.937474
-14.964236878 0.855559
-14.4654325776 0.820583
-13.9666280295 0.894132
-13.4678232337 0.993855
-12.9690181902 1.09357
-12.4702128988 1.22342
-11.9714073597 1.29496
-11.4726015727 1.21677
-10.9737955378 0.932648
-10.4749892551 0.600602
-9.9761827244 0.344937
-9.47737594575 0.161041
-8.97856891912 0.0484544
-8.47976164446 0
-7.98095412176 0.0210664
-7.48214635098 0.0287943
-6.98333833209 0.031825
-6.48453006507 0.0268179
-5.98572154988 0.0200247
-5.4869127865 0.0131592
-4.98810377489 0.0107878
-4.48929451503 0.00918291
-3.99048500688 0.00787788
-3.49167525043 0.00565704
-2.99286524563 0.0113876
-2.49405499245 0.0329358
-1.99524449088 0.0662105
-1.49643374088 0.0944249
-0.99762274242 0.119348
-0.498811495469 0.140395
0 0.151087
0.498811744016 0.157177
0.99762373661 0.167549
1.49643597781 0.174411
1.99524846764 0.147069
2.49406120615 0.131468
2.99287419334 0.167256
3.49168742926 0.185971
3.99050091393 0.196067
4.48931464738 0.198108
4.98812862965 0.181939
5.48694286075 0.164615
5.98575734073 0.162908
6.4845720696 0.176885
6.98338704741 0.180066
7.48220227417 0.172049
7.98101774992 0.195621
8.47983347468 0.236356
8.97864944849 0.280948
9.47746567138 0.321644
9.97628214337 0.348854
10.4750988645 0.377608
10.9739158348 0.397908
11.4727330543 0.411353
11.971550523 0.416752
12.4703682409 0.42606
12.9691862081 0.449685
13.4680044247 0.45518
13.9668228905 0.458901
14.4656416058 0.459255
14.9644605704 0.480901
15.4632797845 0.504579
15.962099248 0.527744
16.460918961 0.553351
16.9597389235 0.562791
17.4585591356 0.568347
17.9573795972 0.559731
18.4562003084 0.52445
18.9550212693 0.509232
19.4538424798 0.510412
19.95266394 0.510778
20.4514856499 0.509438
20.9503076096 0.521598
21.449129819 0.520108
21.9479522783 0.516753
22.4467749873 0.520261
22.9455979463 0.516366
23.4444211551 0.51924
23.9432446139 0.52051
24.4420683226 0.536177
24.9408922812 0.522799
