-24.9474195699 1.55523
-24.4484770532 1.52303
-23.9495342972 1.48524
-23.4505913018 1.45056
-22.951648067 1.40368
-22.4527045927 1.31325
-21.953760879 1.19131
-21.4548169257 1.06871
-20.9558727329 0.943232
-20.4569283006 0.834791
-19.9579836287 0.766111
-19.4590387172 0.663455
-18.9600935661 0.619974
-18.4611481753 0.547437
-17.9622025448 0.478453
-17.4632566746 0.448472
-16.9643105647 0.393375
-16.465364215 0.281216
-15.9664176255 0.1962
-15.4674707963 0.117433
-14.9685237271 0.0451705
-14.4695764182 0.0343804
-13.9706288693 0.026531
-13.4716810805 0.0125898
-12.9727330518 0.0135972
-12.4737847831 0.0171247
-11.9748362744 0.0153848
-11.4758875257 0.0214526
-10.9769385369 0.0194386
-10.4779893081 0.0312851
-9.97903983914 0.0481056
-9.48009013009 0.0936804
-8.98114018089 0.127523
-8.48218999151 0.156098
-7.98323956193 0.170524
-7.48428889212 0.179272
-6.98533798205 0.158086
-6.48638683171 0.136115
-5.98743544106 0.108701
-5.48848381008 0.0817068
-4.98953193874 0.0837393
-4.49057982702 0.059002
-3.99162747489 0.0312767
-3.49267488232 0.00672405
-2.9937220493 0.00299669
-2.49476897578 0
-1.99581566175 0.00221449
-1.49686210719 0.0114098
-0.997908312059 0.0154099
-0.498954276338 0.0191245
0 0.0213342
0.498954516979 0.018848
0.997909274626 0.0233093
1.49686427297 0.026116
1.99581951203 0.027799
2.49477499183 0.0230416
2.99373071241 0.0191735
3.49268667379 0.0186884
3.99164287598 0.0254883
4.49059931903 0.0420159
4.98955600295 0.055539
5.48851292777 0.0486954
5.98747009352 0.0623804
6.48642750022 0.135281
6.98538514789 0.197746
7.48434303657 0.177035
7.98330116628 0.170561
8.48225953704 0.21946
8.98121814889 0.201053
9.48017700184 0.205873
9.97913609592 0.224316
10.4780954312 0.260226
10.9770550076 0.279061
11.4760148252 0.288469
11.9749748841 0.295731
12.4739351842 0.297166
12.9728957256 0.303369
13.4718565083 0.303955
13.9708175324 0.309063
14.4697787978 0.322508
14.9687403047 0.328954
15.4677020529 0.341452
15.9666640426 0.367996
16.4656262737 0.379673
16.9645887463 0.392413
17.4635514605 0.420269
17.9625144162 0.421972
18.4614776134 0.386795
18.9604410523 0.378652
19.4594047327 0.38595
19.9583686549 0.389302
20.4573328186 0.39508
20.9562972241 0.39992
21.4552618713 0.370872
21.9542267603 0.362643
22.453191891 0.370714
22.9521572635 0.379302
23.4511228779 0.366478
23.9500887341 0.36799
24.4490548322 0.381715
24.9480211722 0.412994
