-24.9632816035 1.26631
-24.4640210607 1.30241
-23.9647603104 1.32304
-23.4654993527 1.33829
-22.9662381875 1.34769
-22.4669768149 1.35841
-21.9677152347 1.3817
-21.468453447 1.39209
-20.9691914518 1.39934
-20.469929249 1.36472
-19.9706668386 1.32394
-19.4714042206 1.24381
-18.972141395 1.18083
-18.4728783618 1.13954
-17.9736151209 1.11953
-17.4743516724 1.0794
-16.9750880162 1.01268
-16.4758241522 0.960671
-15.9765600806 0.922152
-15.4772958012 0.900493
-14.978031314 0.897694
-14.478766619 0.893011
-13.9795017163 0.826842
-13.4802366057 0.762877
-12.9809712873 0.674861
-12.4817057611 0.550155
-11.982440027 0.446478
-11.483174085 0.364061
-10.9839079351 0.284268
-10.4846415772 0.217302
-9.98537501145 0.174774
-9.48610823771 0.153921
-8.98684125599 0.15507
-8.48757406628 0.163801
-7.98830666855 0.158173
-7.48903906278 0.141884
-6.98977124897 0.131028
-6.49050322708 0.146364
-5.99123499711 0.182875
-5.49196655903 0.214644
-4.99269791283 0.228388
-4.49342905848 0.227669
-3.99415999598 0.219662
-3.4948907253 0.188054
-2.99562124642 0.177455
-2.49635155932 0.172383
-1.99708166399 0.157964
-1.49781156042 0.148314
-0.998541248571 0.149097
-0.499270728437 0.155942
0 0.175301
0.49927093676 0.177912
0.998542081861 0.140844
1.49781343532 0.0803431
1.99708499716 0.0302963
2.49635676739 0.0255938
2.99562874604 0.016169
3.49490093311 0.00699809
3.99417332864 0.0013602
4.49344593263 0
4.9927187451 0.00376253
5.49199176608 0.0077851
5.99126499558 0.012382
6.49053843362 0.02293
6.98981208022 0.0482024
7.48908593539 0.0714233
7.98835999915 0.0889309
8.48763427153 0.103349
8.98690875253 0.102606
9.48618344218 0.102518
9.9854583405 0.111607
10.4847334475 0.112319
10.9840087632 0.106201
11.4832842876 0.09862
11.9825600208 0.108902
12.4818359627 0.130542
12.9811121134 0.15314
13.4803884728 0.164579
13.9796650411 0.178805
14.4789418182 0.208279
14.9782188042 0.245538
15.477495999 0.287698
15.9767734026 0.339007
16.4760510152 0.388764
16.9753288367 0.404176
17.4746068672 0.44082
17.9738851066 0.484411
18.4731635549 0.511623
18.9724422123 0.525568
19.4717210786 0.538307
19.971000154 0.548317
20.4702794384 0.550164
20.9695589318 0.546205
21.4688386344 0.545262
21.968118546 0.542526
22.4673986668 0.544096
22.9666789967 0.542643
23.4659595357 0.538218
23.9652402839 0.542259
24.4645212413 0.560293
24.9638024078 0.578867
