-24.9596091267 1.0615
-24.4604223304 0.979272
-23.9612353145 0.960835
-23.4620480791 0.926855
-22.9628606241 0.884724
-22.4636729496 0.869852
-21.9644850554 0.867483
-21.4652969416 0.858213
-20.9661086082 0.857321
-20.4669200551 0.813079
-19.9677312823 0.729423
-19.4685422898 0.661199
-18.9693530776 0.574679
-18.4701636457 0.532209
-17.970973994 0.529665
-17.4717841225 0.512753
-16.9725940311 0.468329
-16.47340372 0.40248
-15.974213189 0.339788
-15.4750224382 0.303012
-14.9758314675 0.264494
-14.4766402768 0.20534
-13.9774488663 0.17678
-13.4782572358 0.18777
-12.9790653853 0.172749
-12.4798733148 0.123445
-11.9806810244 0.0765379
-11.4814885139 0.0717917
-10.9822957834 0.0496853
-10.4831028328 0.0204399
-9.9839096621 0.00919037
-9.48471627131 0.00638651
-8.9855226604 0.00468566
-8.48632882935 0.00412342
-7.98713477814 0.00521367
-7.48794050673 0.00517104
-6.98874601513 0
-6.4895513033 0.0216126
-5.99035637122 0.0957097
-5.49116121888 0.156447
-4.99196584625 0.20264
-4.49277025333 0.232594
-3.99357444007 0.247831
-3.49437840648 0.285365
-2.99518215252 0.3429
-2.49598567817 0.389123
-1.99678898342 0.407586
-1.49759206825 0.380521
-0.998394932638 0.344343
-0.499197576561 0.294202
0 0.235902
0.499197797064 0.183344
0.998395814651 0.141778
1.49759405278 0.0996049
1.99679251147 0.0751574
2.49599119075 0.0684445
2.99519009062 0.0679443
3.49438921112 0.0611843
3.99358855226 0.0562271
4.49278811406 0.0745957
4.99198789654 0.0879417
5.49118789973 0.0991755
5.99038812363 0.0940562
6.48958856828 0.0827102
6.98878923369 0.0838152
7.48799011987 0.0919872
7.98719122686 0.0914155
8.48639255466 0.10498
8.98559410331 0.123079
9.48479587282 0.156748
9.9839978632 0.178024
10.4832000745 0.20548
10.9824025067 0.229882
11.4816051598 0.215568
11.9808080339 0.229309
12.480011129 0.258424
12.9792144451 0.305035
13.4784179822 0.323473
13.9776217403 0.348888
14.4768257195 0.379292
14.9760299197 0.404729
15.4752343411 0.439601
15.9744389836 0.497534
16.4736438472 0.575783
16.9728489319 0.655333
17.4720542379 0.72562
17.971259765 0.791677
18.4704655134 0.887915
18.9696714829 0.947364
19.4688776738 0.944519
19.9680840859 0.969966
20.4672907193 1.01721
20.966497574 1.05608
21.46570465 1.07266
21.9649119474 1.07924
22.4641194662 1.12011
22.9633272063 1.12396
23.4625351679 1.11764
23.9617433509 1.13681
24.4609517554 1.1794
24.9601603813 1.20997
