-24.9473822692 0.451274
-24.4484404931 0.447819
-23.9494984778 0.460059
-23.4505562233 0.474841
-22.9516137296 0.518914
-22.4526709968 0.612612
-21.9537280246 0.694254
-21.4547848132 0.752086
-20.9558413625 0.795262
-20.4568976725 0.820377
-19.9579537431 0.848391
-19.4590095743 0.883176
-18.9600651662 0.902111
-18.4611205186 0.893825
-17.9621756315 0.861333
-17.463230505 0.855016
-16.9642851389 0.846909
-16.4653395333 0.840883
-15.9663936882 0.835625
-15.4674476035 0.855755
-14.9685012791 0.853204
-14.4695547151 0.772351
-13.9706079115 0.675896
-13.4716608682 0.556235
-12.9727135851 0.477343
-12.4737660623 0.428306
-11.9748182998 0.385653
-11.4758702974 0.33902
-10.9769220552 0.300125
-10.4779735732 0.282285
-9.97902485129 0.28575
-9.48007588949 0.258936
-8.98112668776 0.172916
-8.48217724609 0.0980833
-7.98322756444 0.051688
-7.48427764278 0.0409581
-6.9853274811 0.0205942
-6.48637707936 0.0134815
-5.98742643754 0
-5.48847555562 0.00704677
-4.98952443356 0.0144003
-4.49057307134 0.0210927
-3.99162146894 0.0260882
-3.49266962633 0.0299509
-2.99371754349 0.0308588
-2.49476522038 0.0326596
-1.99581265698 0.0344413
-1.49685985327 0.0382668
-0.997906809222 0.0407366
-0.498953524806 0.0415008
0 0.0521807
0.498953765224 0.0708998
0.997907770891 0.0962493
1.49686201703 0.138033
1.99581650366 0.183634
2.49477123081 0.19225
2.99372619851 0.193083
3.49268140678 0.188371
3.99163685565 0.171184
4.49059254514 0.173827
4.98954847528 0.176267
5.48850464609 0.174852
5.98746105761 0.181351
6.48641770986 0.176652
6.98537460286 0.174657
7.48433173664 0.191891
7.98328911122 0.216836
8.48224672663 0.224176
8.9812045829 0.1966
9.48016268005 0.20161
9.9791210181 0.199557
10.4780795971 0.204721
10.977038417 0.209897
11.475997478 0.217035
11.9749567799 0.226694
12.4739163229 0.24434
12.9728761069 0.26087
13.4718361321 0.298007
13.9707963983 0.364667
14.4697569057 0.438654
14.9687176542 0.51308
15.467678644 0.583354
15.9666398749 0.662221
16.4656013471 0.739968
16.9645630606 0.777245
17.4635250153 0.799006
17.9624872114 0.833929
18.4614496488 0.865329
18.9604123276 0.887468
19.4593752478 0.899665
19.9583384094 0.866372
20.4573018125 0.864028
20.956265457 0.860234
21.455229343 0.856595
21.9541934706 0.89729
22.4531578397 0.928858
22.9521224503 0.950771
23.4510873026 0.97249
23.9500523965 0.996171
24.449017732 1.00591
24.9479833093 1.02663
