-24.9631052326 1.14734
-24.4638482192 1.12859
-23.9645909983 1.1092
-23.4653335698 1.08521
-22.9660759338 1.03975
-22.4668180902 1.0282
-21.9675600391 1.03688
-21.4683017803 1.03341
-20.9690433139 1.00044
-20.4697846399 0.972176
-19.9705257582 0.95774
-19.4712666689 0.929492
-18.9720073718 0.92859
-18.472747867 0.907889
-17.9734881545 0.853625
-17.4742282343 0.772929
-16.9749681062 0.700269
-16.4757077704 0.648641
-15.9764472268 0.618807
-15.4771864754 0.593096
-14.9779255161 0.57894
-14.4786643489 0.59699
-13.9794029739 0.640311
-13.480141391 0.669798
-12.9808796001 0.671317
-12.4816176014 0.658261
-11.9823553946 0.651246
-11.4830929799 0.608624
-10.9838303572 0.56274
-10.4845675265 0.517877
-9.98530448782 0.466253
-9.48604124105 0.459969
-8.98677778622 0.43759
-8.48751412332 0.399407
-7.98825025231 0.35049
-7.48898617319 0.276353
-6.98972188593 0.152751
-6.49045739052 0.0736246
-5.99119268694 0.0223719
-5.49192777517 0.0194214
-4.99266265519 0.0130237
-4.49339732699 0.00275656
-3.99413179054 0
-3.49486604583 0.00942753
-2.99560009284 0.027757
-2.49633393155 0.0339566
-1.99706756195 0.0389854
-1.49780098401 0.0396338
-0.998534197715 0.0394522
-0.499267203052 0.0401316
0 0.04825
0.49926741146 0.0736104
0.998535031345 0.12968
1.49780285967 0.191421
1.99707089646 0.230687
2.49633914173 0.215641
2.9956075955 0.193751
3.49487625779 0.186026
3.9941451286 0.186346
4.49341420797 0.178938
4.99268349591 0.167466
5.49195299244 0.148669
5.99122269758 0.0849926
6.49049261133 0.0408749
6.98976273374 0.0223505
7.4890330648 0.0292564
7.98830360454 0.0582109
8.48757435298 0.0860411
8.98684531013 0.101788
9.48611647601 0.105587
9.98538785065 0.119491
10.4846594341 0.15219
10.9839312262 0.157877
11.4832032272 0.158775
11.9824754371 0.150794
12.4817478557 0.14845
12.9810204832 0.15858
13.4802933196 0.176315
13.9795663649 0.175613
14.4788396191 0.175653
14.9781130823 0.180841
15.4773867543 0.187075
15.9766606354 0.19314
16.4759347254 0.175159
16.9752090245 0.180049
17.4744835325 0.224889
17.9737582496 0.258952
18.4730331758 0.251696
18.972308311 0.251347
19.4715836553 0.249368
19.9708592087 0.254093
20.4701349713 0.279136
20.969410943 0.315844
21.4686871239 0.316741
21.9679635139 0.299411
22.4672401132 0.298406
22.9665169217 0.308495
23.4657939394 0.308148
23.9650711663 0.329366
24.4643486025 0.34085
24.9636262481 0.306366
