-24.9630891563 1.00488
-24.4638324622 1.02532
-23.9645755608 1.05762
-23.4653184519 1.09271
-22.9660611356 1.10084
-22.4668036118 1.09655
-21.9675458804 1.10282
-21.4682879416 1.11693
-20.9690297952 1.08569
-20.4697714413 1.071
-19.9705128798 1.05375
-19.4712541107 1.02226
-18.971995134 0.943647
-18.4727359497 0.856644
-17.9734765577 0.791635
-17.474216958 0.735112
-16.9749571507 0.698962
-16.4756971357 0.663021
-15.9764369129 0.631513
-15.4771764825 0.606556
-14.9779158442 0.570737
-14.4786549982 0.576557
-13.9793939444 0.572151
-13.4801326828 0.567836
-12.9808712133 0.566329
-12.4816095361 0.559967
-11.9823476509 0.571972
-11.4830855579 0.596777
-10.9838232569 0.600762
-10.484560748 0.589212
-9.98529803124 0.58268
-9.48603510648 0.543796
-8.98677197374 0.483094
-8.48750863302 0.455213
-7.98824508427 0.397725
-7.4889813275 0.352261
-6.98971736269 0.313156
-6.4904531898 0.260186
-5.99118880883 0.210729
-5.49192421976 0.161783
-4.99265942257 0.134074
-4.49339441724 0.0773719
-3.99412920375 0.0463208
-3.49486378208 0.0337631
-2.99559815223 0.011008
-2.49633231416 0.00277437
-1.99706626786 0
-1.49780001331 0.00866021
-0.998533550498 0.0225463
-0.499266879401 0.0510071
0 0.0811062
0.499267087721 0.114986
0.99853438378 0.129919
1.4978018882 0.174977
1.99706960099 0.179263
2.49633752217 0.161045
2.99560565177 0.151393
3.49487398979 0.165839
3.99414253627 0.185205
4.49341129121 0.196701
4.99268025463 0.172747
5.49194942655 0.152633
5.991218807 0.140536
6.49048839598 0.152045
6.98975819351 0.153474
7.48902819963 0.13903
7.98829841433 0.129264
8.48756883764 0.111019
8.98683946958 0.0896216
9.48611031017 0.114488
9.98538135943 0.152776
10.4846526174 0.159372
10.983924084 0.125356
11.4831957593 0.108397
11.9824676434 0.0997219
12.4817397363 0.0945029
12.9810120379 0.0989707
13.4802845483 0.107385
13.9795572675 0.109896
14.4788301956 0.125178
14.9781033325 0.117503
15.4773766782 0.11183
15.9766502328 0.112133
16.4759239964 0.120947
16.9751979688 0.136102
17.4744721502 0.154698
17.9737465405 0.168179
18.4730211398 0.175914
18.9722959481 0.176823
19.4715709654 0.185482
19.9708461917 0.191286
20.4701216271 0.203714
20.9693972715 0.221615
21.468673125 0.204419
21.9679491876 0.158348
22.4672254593 0.143575
22.9665019401 0.140309
23.4657786301 0.131985
23.9650555293 0.121671
24.4643326376 0.118632
24.9636099552 0.146171
