-24.9285407896 1.0931
-24.4299765604 1.12773
-23.931412063 1.17125
-23.4328472973 1.20585
-22.9342822632 1.23424
-22.4357169607 1.23446
-21.9371513898 1.22026
-21.4385855505 1.13996
-20.9400194427 1.0661
-20.4414530663 1.0169
-19.9428864214 0.995871
-19.4443195079 0.993909
-18.9457523258 0.95573
-18.447184875 0.904785
-17.9486171554 0.856642
-17.4500491672 0.791219
-16.9514809102 0.743053
-16.4529123844 0.69322
-15.9543435897 0.690739
-15.4557745261 0.708891
-14.9572051937 0.718436
-14.4586355923 0.704954
-13.9600657219 0.693405
-13.4614955825 0.701604
-12.962925174 0.735217
-12.4643544964 0.719251
-11.9657835497 0.63415
-11.4672123339 0.516431
-10.9686408488 0.405757
-10.4700690946 0.293538
-9.97149707103 0.207825
-9.47292477819 0.132649
-8.97435221601 0.121765
-8.47577938446 0.116126
-7.9772062835 0.124781
-7.4786329131 0.149294
-6.98005927321 0.153769
-6.48148536382 0.143315
-5.98291118488 0.201485
-5.48433673635 0.313084
-4.98576201821 0.418063
-4.48718703041 0.519791
-3.98861177292 0.596495
-3.49003624571 0.675699
-2.99146044874 0.743561
-2.49288438197 0.780501
-1.99430804538 0.776147
-1.49573143892 0.756523
-0.99715456256 0.712852
-0.498577416265 0.624839
0 0.50298
0.49857768627 0.372176
0.997155642581 0.287346
1.49573386897 0.214322
1.99431236546 0.145834
2.4928911321 0.0721083
2.99147016893 0.038317
3.49004947597 0.020318
3.98862905326 0.0231683
4.48720890083 0.0223994
4.98578901873 0.0239349
5.48436940698 0.0225654
5.98295006562 0.0158346
6.48153099469 0.00649143
6.98011219422 0
7.47869366425 0.000979707
7.97727540481 0.0285518
8.47585741593 0.0613762
8.97443969765 0.0805882
9.47302225001 0.105977
9.97160507304 0.164433
10.4701881668 0.215727
10.9687715313 0.272964
11.4673551665 0.327004
11.9659390726 0.370537
12.4645232495 0.406251
12.9631076973 0.455429
13.461692416 0.511556
13.9602774057 0.558952
14.4588626663 0.599564
14.957448198 0.648135
15.4560340007 0.684576
15.9546200745 0.714911
16.4532064194 0.741667
16.9517930355 0.762446
17.4503799228 0.779711
17.9489670813 0.787844
18.4475545111 0.812667
18.9461422122 0.835902
19.4447301846 0.857578
19.9433184284 0.884722
20.4419069436 0.923311
20.9404957302 0.976667
21.4390847883 1.0258
21.937674118 1.0125
22.4362637191 0.991261
22.9348535918 0.987615
23.4334437362 0.996062
23.9320341522 1.01999
24.4306248399 1.04315
24.9292157993 1.05782
