-24.9465255974 1.35571
-24.4476009498 1.37266
-23.9486760634 1.38675
-23.4497509379 1.41795
-22.9508255735 1.42422
-22.4518999701 1.42259
-21.9529741276 1.43763
-21.454048046 1.42719
-20.9551217253 1.42384
-20.4561951655 1.44015
-19.9572683666 1.43332
-19.4583413285 1.37522
-18.9594140511 1.26813
-18.4604865346 1.16033
-17.9615587788 1.09857
-17.4626307837 0.98681
-16.9637025492 0.82228
-16.4647740755 0.65352
-15.9658453624 0.519943
-15.4669164099 0.466741
-14.9679872179 0.46535
-14.4690577866 0.477881
-13.9701281157 0.466269
-13.4711982054 0.44552
-12.9722680555 0.444447
-12.4733376661 0.454693
-11.9744070371 0.459989
-11.4754761685 0.437431
-10.9765450603 0.439016
-10.4776137124 0.478162
-9.97868212488 0.481337
-9.47975029762 0.507508
-8.98081823062 0.49217
-8.48188592386 0.460651
-7.98295337732 0.441681
-7.48402059096 0.427226
-6.98508756476 0.410977
-6.48615429869 0.367562
-5.98722079273 0.291925
-5.48828704685 0.1666
-4.98935306103 0.0811073
-4.49041883523 0.0242859
-3.99148436944 0
-3.49254966362 0.00287655
-2.99361471775 0.0138094
-2.49467953181 0.027724
-1.99574410576 0.030054
-1.49680843958 0.023391
-0.997872533243 0.0241061
-0.498936386726 0.0272374
0 0.0432633
0.498936626961 0.0681063
0.997873494182 0.0985257
1.49681060169 0.141358
1.99574794951 0.170752
2.49468553768 0.185838
2.99362336621 0.177893
3.49256143513 0.160954
3.99149974447 0.15127
4.49043829425 0.169509
4.98937708451 0.191216
5.48831611526 0.216409
5.98725538654 0.237933
6.48619489837 0.237291
6.98513465077 0.246266
7.48407464377 0.24356
7.98301487741 0.228707
8.4819553517 0.224705
8.98089606666 0.240859
9.47983702234 0.254058
9.97877821875 0.250709
10.4777196559 0.268136
10.9766613339 0.313433
11.4756032526 0.356542
11.9745454122 0.38761
12.4734878127 0.404419
12.9724304541 0.432432
13.4713733363 0.447338
13.9703164595 0.476745
14.4692598237 0.517744
14.9682034289 0.547092
15.4671472751 0.564712
15.9660913623 0.60576
16.4650356907 0.639006
16.9639802601 0.674879
17.4629250706 0.674204
17.9618701223 0.694776
18.4608154152 0.69028
18.9597609492 0.677883
19.4587067246 0.649407
19.9576527411 0.624838
20.4565989989 0.584801
20.9555454981 0.588259
21.4544922386 0.634348
21.9534392204 0.646735
22.4523864436 0.638003
22.9513339083 0.624729
23.4502816143 0.64467
23.9492295619 0.650991
24.4481777509 0.639216
24.9471261814 0.657944
