-24.9629606568 0.994315
-24.4637065158 1.02898
-23.964452168 1.06812
-23.4651976134 1.11104
-22.9659428521 1.1564
-22.466687884 1.20282
-21.9674327091 1.24767
-21.4681773274 1.29199
-20.9689217389 1.33376
-20.4696659435 1.3738
-19.9704099412 1.40522
-19.471153732 1.42413
-18.9718973159 1.43403
-18.4726406928 1.43113
-17.9733838629 1.40718
-17.4741268259 1.37671
-16.974869582 1.37654
-16.475612131 1.38071
-15.9763544731 1.38399
-15.4770966081 1.37195
-14.977838536 1.33645
-14.4785802568 1.31108
-13.9793217706 1.26604
-13.4800630772 1.18718
-12.9808041767 1.09654
-12.4815450691 1.03026
-11.9822857543 0.977868
-11.4830262323 0.915273
-10.9837665031 0.842951
-10.4845065666 0.76875
-9.98524642295 0.682373
-9.48598607201 0.619881
-8.98672551378 0.5742
-8.48746474826 0.501932
-7.98820377542 0.427724
-7.48894259525 0.35391
-6.98968120772 0.277692
-6.49041961282 0.237283
-5.99115781053 0.223539
-5.49189580083 0.227974
-4.99263358371 0.222672
-4.49337115914 0.219725
-3.99410852711 0.234755
-3.4948456876 0.244753
-2.99558264058 0.256823
-2.49631938605 0.26435
-1.99705592399 0.265639
-1.49779225437 0.259765
-0.998528377175 0.248051
-0.499264292392 0.23604
0 0.231067
0.499264500019 0.230126
0.998529207684 0.234427
1.49779412301 0.238535
1.99705924602 0.243923
2.49632457673 0.25437
2.99559011516 0.265842
3.49485586132 0.270408
3.99412181524 0.269683
4.49338797693 0.267047
4.99265434641 0.254306
5.4919209237 0.243785
5.99118770881 0.239843
6.49045470177 0.261239
6.9897219026 0.340204
7.4889893113 0.399382
7.98825692791 0.459828
8.48752475243 0.547019
8.98679278489 0.577494
9.4860610253 0.556555
9.98532947368 0.538286
10.4845981301 0.526141
10.9838669944 0.529007
11.4831360668 0.536218
11.9824053473 0.534913
12.4816748358 0.532149
12.9809445324 0.53036
13.4802144371 0.511653
13.9794845499 0.493903
14.4787548709 0.437722
14.9780254 0.367316
15.4772961372 0.290152
15.9765670827 0.215395
16.4758382363 0.146555
16.9751095982 0.0842901
17.4743811684 0.0575916
17.9736529467 0.0421058
18.4729249334 0.0282218
18.9721971284 0.0200603
19.4714695317 0.0166669
19.9707421433 0.0137999
20.4700149632 0.0163497
20.9692879916 0.0178049
21.4685612283 0.0199126
21.9678346734 0.0172421
22.467108327 0.00977238
22.966382189 0.000124516
23.4656562594 0
23.9649305383 0.014539
24.4642050258 0.0571715
24.9634797217 0.101182
