-24.9341015334 0.934378
-24.4354258881 0.943759
-23.9367499827 0.945078
-23.4380738172 0.930341
-22.9393973915 0.906001
-22.4407207056 0.871175
-21.9420437594 0.862272
-21.443366553 0.865641
-20.9446890863 0.859586
-20.4460113592 0.859771
-19.9473333718 0.867661
-19.448655124 0.880313
-18.9499766158 0.874821
-18.4512978471 0.869213
-17.9526188178 0.836768
-17.4539395281 0.795949
-16.9552599778 0.704691
-16.4565801669 0.591117
-15.9579000954 0.453754
-15.4592197632 0.31456
-14.9605391703 0.203647
-14.4618583167 0.136454
-13.9631772023 0.0688057
-13.4644958271 0.0253836
-12.9658141912 0.00580851
-12.4671322943 0
-11.9684501366 0.00140688
-11.4697677179 0.00358044
-10.9710850383 0.00903528
-10.4724020977 0.014662
-9.97371889614 0.0541497
-9.47503543348 0.11052
-8.97635170973 0.148837
-8.47766772487 0.168326
-7.97898347886 0.174121
-7.48029897167 0.142645
-6.98161420327 0.0988193
-6.48292917362 0.075665
-5.98424388269 0.0464582
-5.48555833045 0.0457905
-4.98687251687 0.0451256
-4.48818644191 0.0381553
-3.98950010554 0.03214
-3.49081350773 0.0277766
-2.99212664845 0.0262746
-2.49343952766 0.0269554
-1.99475214534 0.0277169
-1.49606450144 0.0256286
-0.997376595939 0.0261431
-0.498688428803 0.0279552
0 0.0251938
0.498688690502 0.0230101
0.997377642738 0.0232207
1.49606685674 0.0240024
1.99475633254 0.0346852
2.49344607016 0.05118
2.99213606965 0.0693139
3.49082633104 0.105635
3.98951685435 0.14252
4.48820763961 0.15066
4.98689868688 0.186737
5.48558999616 0.240368
5.9842815675 0.313866
6.48297340093 0.371676
6.98166549647 0.401778
7.48035785418 0.431148
7.97905047406 0.460987
8.47774335617 0.490733
8.97643650052 0.50904
9.47512990715 0.513377
9.9738235761 0.485619
10.4725175074 0.470001
10.9712117011 0.47114
11.4699061572 0.473822
11.9686008757 0.47387
12.4672958567 0.476198
12.9659911002 0.4822
13.4646866062 0.499921
13.9633823749 0.522212
14.4620784061 0.553655
14.9607747 0.56812
15.4594712565 0.582931
15.9581680757 0.609584
16.4568651577 0.631557
16.9555625024 0.661582
17.45426011 0.707036
17.9529579803 0.720725
18.4516561135 0.715572
18.9503545096 0.704275
19.4490531687 0.718932
19.9477520907 0.735941
20.4464512757 0.759881
20.9451507237 0.771838
21.4438504347 0.775108
21.9425504089 0.810697
22.4412506462 0.8654
22.9399511466 0.903883
23.4386519102 0.956744
23.937352937 0.998384
24.436054227 1.05788
24.9347557804 1.06885
