-24.9614024748 0.483467
-24.462179756 0.43939
-23.9629568199 0.42563
-23.4637336665 0.402567
-22.9645102958 0.372008
-22.4652867078 0.343458
-21.9660629025 0.306233
-21.4668388797 0.273742
-20.9676146396 0.278092
-20.4683901821 0.311995
-19.9691655072 0.36583
-19.4699406148 0.432479
-18.9707155049 0.497272
-18.4714901776 0.515734
-17.9722646327 0.500932
-17.4730388703 0.538315
-16.9738128904 0.577525
-16.474586693 0.631053
-15.9753602779 0.681877
-15.4761336453 0.729551
-14.976906795 0.728209
-14.4776797271 0.691425
-13.9784524415 0.690408
-13.4792249383 0.701584
-12.9799972174 0.691603
-12.4807692787 0.672822
-11.9815411224 0.647941
-11.4823127482 0.640244
-10.9830841563 0.645554
-10.4838553467 0.650727
-9.98462631916 0.657947
-9.48539707383 0.616004
-8.98616761066 0.551862
-8.48693792962 0.495641
-7.9877080307 0.442018
-7.48847791387 0.370754
-6.98924757912 0.299075
-6.49001702643 0.251259
-5.99078625577 0.18784
-5.49155526714 0.138719
-4.99232406051 0.0810281
-4.49309263585 0.0251356
-3.99386099316 0
-3.49462913241 0.00110616
-2.99539705359 0.00897979
-2.49616475667 0.0198454
-1.99693224164 0.0274455
-1.49769950848 0.0479043
-0.998466557162 0.0498072
-0.499233387676 0.0704502
0 0.0772151
0.499233605884 0.0847936
0.998467429996 0.107899
1.49770147235 0.124544
1.99693573298 0.133092
2.49617021188 0.134772
2.9954049091 0.134667
3.49463982463 0.132053
3.9938749585 0.134571
4.49311031074 0.140544
4.99234588135 0.148398
5.49158167036 0.170929
5.99081767779 0.208832
6.49005390366 0.274461
6.98929034798 0.28181
7.48852701077 0.278568
7.98776389205 0.295402
8.48700099185 0.3272
8.98623831018 0.384674
9.48547584705 0.452541
9.9847136025 0.516557
10.4839515765 0.54136
10.9831897692 0.546606
11.4824281804 0.53654
11.9816668103 0.50888
12.4809056589 0.501305
12.9801447261 0.515736
13.4793840121 0.550146
13.9786235168 0.578364
14.4778632402 0.587978
14.9771031823 0.603585
15.4763433433 0.622449
15.975583723 0.653303
16.4748243215 0.701246
16.9740651389 0.73684
17.4733061751 0.748252
17.9725474302 0.746402
18.4717889042 0.76152
18.9710305971 0.799968
19.4702725089 0.854633
19.9695146397 0.896337
20.4687569894 0.911229
20.9679995581 0.920373
21.4672423458 0.93098
21.9664853525 0.949762
22.4657285783 0.964393
22.9649720231 0.990061
23.464215687 1.005
23.96345957 1.00356
24.4627036721 1.03836
24.9619479933 1.10681
