-24.9612848852 1.05985
-24.4620645026 1.03292
-23.9628439034 0.992843
-23.4636230875 0.934878
-22.964402055 0.831317
-22.4651808057 0.779386
-21.9659593397 0.753699
-21.466737657 0.741854
-20.9675157576 0.749467
-20.4682936414 0.785179
-19.9690713083 0.831303
-19.4698487585 0.867439
-18.9706259919 0.970164
-18.4714030084 1.02669
-17.972179808 1.00437
-17.4729563908 0.948609
-16.9737327566 0.895528
-16.4745089055 0.841475
-15.9752848375 0.77508
-15.4760605525 0.698194
-14.9768360506 0.63029
-14.4776113316 0.611044
-13.9783863956 0.561581
-13.4791612426 0.495968
-12.9799358725 0.440372
-12.4807102853 0.375561
-11.9814844811 0.310068
-11.4822584597 0.271018
-10.9830322212 0.282372
-10.4838057655 0.26986
-9.98457909267 0.215788
-9.48535220264 0.152939
-8.98612509539 0.105306
-8.48689777092 0.122124
-7.98767022919 0.164372
-7.4884424702 0.231744
-6.98921449391 0.275641
-6.48998630032 0.294286
-5.99075788941 0.287521
-5.49152926115 0.248486
-4.99230041552 0.188078
-4.49307135251 0.114835
-3.9938420721 0.0563756
-3.49461257426 0.041252
-2.99538285898 0.0275922
-2.49615292625 0.0174357
-1.99692277603 0
-1.49769240832 0.0128398
-0.998461823088 0.0572688
-0.499231020322 0.106241
0 0.128257
0.499231237896 0.129617
0.998462693385 0.119884
1.49769436649 0.102456
1.99692625722 0.0612386
2.4961583656 0.0528715
2.99539069166 0.0515548
3.4946232354 0.0520714
3.99385599684 0.0679348
4.49308897602 0.0718077
4.99232217294 0.0535197
5.49155558762 0.0362143
5.99078922009 0.0312583
6.49002307036 0.0491443
6.98925713845 0.0697833
7.48849142438 0.0951897
7.98772592817 0.10966
8.48696064984 0.107863
8.9861955894 0.0987352
9.48543074688 0.0865536
9.9846661223 0.0786758
10.4839017157 0.0668541
10.983137527 0.0522801
11.4823735563 0.0564944
11.9816098037 0.054487
12.4808462691 0.0539454
12.9800829525 0.0609716
13.479319854 0.0937096
13.9785569735 0.121161
14.4777943112 0.146121
14.977031867 0.161608
15.476269641 0.198392
15.9755076331 0.246399
16.4747458434 0.320387
16.9739842719 0.387127
17.4732229186 0.467801
17.9724617835 0.571154
18.4717008667 0.657455
18.9709401682 0.694222
19.4701796879 0.723814
19.969419426 0.749941
20.4686593824 0.780907
20.9678995572 0.838506
21.4671399503 0.904139
21.9663805618 0.933667
22.4656213917 0.960128
22.9648624401 0.991783
23.4641037069 1.02159
23.9633451921 1.05432
24.4625868959 1.0916
24.9618288181 1.12613
