-24.9285394329 1.08035
-24.4299752307 1.06737
-23.9314107602 1.02007
-23.4328460214 0.957344
-22.9342810142 0.89458
-22.4357157387 0.847565
-21.9371501948 0.804857
-21.4385843824 0.755281
-20.9400183015 0.702995
-20.4414519522 0.650484
-19.9428853342 0.595128
-19.4443184477 0.549043
-18.9457512926 0.511501
-18.4471838688 0.48857
-17.9486161763 0.452117
-17.4500482151 0.408603
-16.9514799852 0.323662
-16.4529114864 0.232931
-15.9543427188 0.129368
-15.4557736823 0.0965333
-14.9572043769 0.0934153
-14.4586348026 0.112689
-13.9600649593 0.169742
-13.461494847 0.266556
-12.9629244657 0.359946
-12.4643538152 0.425041
-11.9657828957 0.464133
-11.467211707 0.472513
-10.9686402491 0.471588
-10.470068522 0.49026
-9.97149652561 0.593061
-9.47292425995 0.629078
-8.97435172496 0.63122
-8.47577892061 0.595369
-7.97720584687 0.566514
-7.47863250368 0.529681
-6.98005889103 0.513057
-6.48148500888 0.523578
-5.98291085718 0.513677
-5.48433643591 0.472936
-4.98576174504 0.447074
-4.48718678451 0.435608
-3.98861155431 0.437316
-3.49003605439 0.439963
-2.99146028473 0.433709
-2.49288424527 0.418533
-1.994307936 0.404796
-1.49573135687 0.39999
-0.997154507853 0.383922
-0.498577388907 0.369611
0 0.396986
0.498577658902 0.460752
0.997155587836 0.503154
1.49573378684 0.491192
1.99431225594 0.440848
2.49289099518 0.358157
2.99147000458 0.252889
3.4900492842 0.148247
3.98862883406 0.0645493
4.48720865419 0.0241048
4.98578874464 0.00588508
5.48436910543 0.00897741
5.9829497366 0.0117549
6.48153063819 0.00763749
6.98011181024 0.00337073
7.47869325277 0
7.97727496582 0.00167415
8.47585694943 0.00390559
8.97443920363 0.00499926
9.47302172846 0.0160242
9.97160452395 0.0470413
10.4701875901 0.0892944
10.9687709271 0.14025
11.4673545347 0.193163
11.9659384132 0.237407
12.4645225625 0.294398
12.9631069827 0.352046
13.4616916738 0.419292
13.9602766359 0.490754
14.4588618689 0.556192
14.9574473729 0.612129
15.456033148 0.669138
15.9546191942 0.71385
16.4532055114 0.74946
16.9517920999 0.761475
17.4503789595 0.780434
17.9489660903 0.792672
18.4475534924 0.813151
18.9461411658 0.828462
19.4447291105 0.824655
19.9433173265 0.821136
20.441905814 0.818072
20.9404945729 0.824062
21.4390836032 0.829785
21.9376729051 0.839225
22.4362624785 0.842116
22.9348523234 0.852662
23.43344244 0.859812
23.9320328282 0.876686
24.4306234881 0.915488
24.9292144196 0.934374
