-24.9280439948 0.908584
-24.4294896254 0.914974
-23.9309349909 0.927988
-23.4323800911 0.94232
-22.9338249261 0.955108
-22.4352694958 0.982382
-21.9367138003 1.01887
-21.4381578393 1.05479
-20.9396016131 1.05833
-20.4410451213 1.06819
-19.9424883642 1.08591
-19.4439313415 1.08428
-18.9453740534 1.07474
-18.4468164996 1.06604
-17.9482586803 1.03663
-17.4497005954 1.0049
-16.9511422447 1.04723
-16.4525836284 1.07865
-15.9540247464 1.08603
-15.4554655986 1.00508
-14.9569061849 0.911005
-14.4583465055 0.833571
-13.9597865601 0.772499
-13.4612263488 0.741619
-12.9626658716 0.738808
-12.4641051284 0.731047
-11.9655441192 0.711206
-11.466982844 0.692483
-10.9684213026 0.688892
-10.4698594951 0.677791
-9.97129742147 0.638872
-9.47273508163 0.550015
-8.97417247555 0.416971
-8.47560960321 0.250122
-7.97704646456 0.112335
-7.47848305957 0.024592
-6.97991938821 0.00691881
-6.48135545044 0
-5.98279124622 0.00704019
-5.48422677552 0.00776726
-4.98566203831 0.00944586
-4.48709703454 0.00415967
-3.98853176419 0.0264701
-3.48996622722 0.0742899
-2.99140042359 0.151142
-2.49283435326 0.265322
-1.99426801621 0.366983
-1.49570141239 0.374457
-0.997134541773 0.330359
-0.498567404322 0.256521
0 0.189664
0.498567671226 0.145788
0.997135609394 0.119936
1.49570381454 0.117958
1.99427228669 0.130296
2.49284102589 0.157037
2.99141003218 0.196522
3.48997930558 0.238924
3.98854884613 0.24337
4.48711865387 0.243233
4.98568872884 0.287746
5.48425907106 0.347925
5.98282968058 0.390481
6.48140055742 0.388656
6.97997170163 0.474714
7.47854311324 0.492377
7.97711479228 0.503159
8.4756867388 0.527794
8.97425895281 0.559136
9.47283143437 0.54144
9.97140418351 0.53283
10.4699772003 0.527021
10.9685504846 0.535552
11.4671240367 0.536165
11.9656978565 0.537131
12.4642719441 0.543779
12.9628462994 0.561838
13.4614209225 0.586494
13.9599958135 0.580675
14.4585709724 0.531006
14.9571463993 0.498195
15.4557220941 0.496904
15.9542980568 0.493001
16.4528742877 0.484929
16.9514507866 0.479212
17.4500275536 0.487425
17.9486045887 0.510512
18.447181892 0.54438
18.9457594635 0.578003
19.4443373033 0.610237
19.9429154113 0.637742
20.4414937876 0.643328
20.9400724323 0.654956
21.4386513454 0.667919
21.9372305269 0.691993
22.4358099769 0.700827
22.9343896953 0.707633
23.4329696823 0.715534
23.9315499378 0.709004
24.430130462 0.708951
24.9287112547 0.735245
