-24.9633159709 1.04907
-24.4640547452 1.04255
-23.964793312 1.0107
-23.4655316711 0.971833
-22.9662698225 0.952354
-22.4670077663 0.951135
-21.9677455024 0.956674
-21.4684830308 0.967475
-20.9692203515 0.947817
-20.4699574644 0.917128
-19.9706943695 0.888747
-19.4714310669 0.860427
-18.9721675564 0.838274
-18.4729038382 0.840304
-17.9736399121 0.817409
-17.4743757781 0.78387
-16.9751114363 0.769882
-16.4758468866 0.750308
-15.976582129 0.728968
-15.4773171634 0.684812
-14.9780519899 0.61416
-14.4787866085 0.549004
-13.979521019 0.476499
-13.4802552216 0.423492
-12.9809892161 0.400037
-12.4817230026 0.379366
-11.982456581 0.394118
-11.4831899514 0.378133
-10.9839231137 0.347616
-10.4846560679 0.324041
-9.9853888139 0.294053
-9.4861213518 0.270755
-8.98685368153 0.261468
-8.48758580308 0.251951
-7.98831771643 0.24665
-7.48904942156 0.243664
-6.98978091845 0.235451
-6.49051220709 0.22002
-5.99124328745 0.21809
-5.49197415953 0.227446
-4.9927048233 0.208868
-4.49343527874 0.16418
-3.99416552583 0.12173
-3.49489556456 0.101447
-2.99562539491 0.0888074
-2.49635501686 0.0562236
-1.9970844304 0.0202404
-1.4978136355 0.0245622
-0.998542632141 0.0209029
-0.499271420316 0.0109603
0 0.00852131
0.499271628823 0.00738753
0.998543466172 0.00688553
1.49781551206 0.00674609
1.99708776652 0.00542943
2.49636022955 0.00305259
2.99563290118 0
3.49490578143 0.0100548
3.99417887031 0.0586726
4.49345216784 0.0961786
4.99272567404 0.103801
5.49199938893 0.0972594
5.99127331252 0.101735
6.49054744483 0.138907
6.98982178589 0.175328
7.48909633571 0.211621
7.9883710943 0.248986
8.48764606169 0.285891
8.9869212379 0.335079
9.48619662293 0.378679
9.98547221681 0.389038
10.4847480196 0.425451
10.9840240312 0.488663
11.4833002517 0.494551
11.9825766812 0.458265
12.4818533196 0.463277
12.9811301669 0.458965
13.4804072233 0.471122
13.9796844886 0.480565
14.4789619629 0.492681
14.9782396463 0.514741
15.4775175387 0.526813
15.9767956401 0.519442
16.4760739507 0.517387
16.9753524703 0.539254
17.4746311991 0.565418
17.973910137 0.531358
18.4731892841 0.463641
18.9724686403 0.448323
19.4717482057 0.519623
19.9710279803 0.577157
20.4703079642 0.624485
20.9695881573 0.666852
21.4688685596 0.709792
21.9681491712 0.721451
22.4674299922 0.71679
22.9667110224 0.71661
23.4659922619 0.70622
23.9652737109 0.689946
24.4645553691 0.695858
24.9638372368 0.704526
