-24.9410431927 1.16659
-24.4422284093 1.17942
-23.9434133782 1.1837
-23.4445980993 1.21109
-22.9457825727 1.25476
-22.4469667982 1.28167
-21.9481507759 1.30292
-21.4493345058 1.32821
-20.9505179877 1.3378
-20.4517012218 1.35758
-19.9528842079 1.37462
-19.454066946 1.40528
-18.9552494361 1.4435
-18.4564316782 1.48998
-17.9576136722 1.52703
-17.4587954182 1.52131
-16.959976916 1.47641
-16.4611581656 1.38352
-15.9623391671 1.31219
-15.4635199203 1.28291
-14.9647004253 1.27056
-14.4658806821 1.27113
-13.9670606905 1.29723
-13.4682404507 1.3309
-12.9694199624 1.33114
-12.4705992258 1.31798
-11.9717782408 1.30668
-11.4729570073 1.31008
-10.9741355253 1.30684
-10.4753137949 1.25572
-9.97649181591 1.14924
-9.47766958837 1.05491
-8.97884711224 1.02798
-8.48002438749 0.980015
-7.98120141409 0.874435
-7.48237819202 0.726696
-6.98355472124 0.552819
-6.48473100173 0.337112
-5.98590703345 0.140676
-5.48708281638 0.0357623
-4.98825835049 0
-4.48943363574 0.00628336
-3.99060867212 0.0254397
-3.49178345959 0.0311816
-2.99295799812 0.028411
-2.49413228769 0.0299589
-1.99530632826 0.0262776
-1.4964801198 0.0219099
-0.997653662295 0.0241008
-0.498826955703 0.0306187
0 0.0334081
0.498827204843 0.0341926
0.997654658857 0.0358587
1.49648236207 0.0362851
1.99531031451 0.0424388
2.49413851621 0.0607871
2.99296696719 0.0824927
3.49179566748 0.11994
3.99062461712 0.195988
4.48945381613 0.277262
4.98828326454 0.354458
5.48711296239 0.431669
5.98594290969 0.503793
6.48477310648 0.569999
6.98360355278 0.626419
7.48243424864 0.650006
7.98126519406 0.642601
8.48009638909 0.657747
8.97892783375 0.681973
9.47775952808 0.699817
9.97659147209 0.711861
10.4754236658 0.72218
10.9742561093 0.72704
11.4730888026 0.741432
11.9719217456 0.77341
12.4707549385 0.805558
12.9695883813 0.815017
13.4684220739 0.82469
13.9672560165 0.859421
14.466090209 0.912173
14.9649246515 0.927851
15.463759344 0.913649
15.9625942866 0.899548
16.4614294792 0.919706
16.9602649219 0.939899
17.4591006147 0.964325
17.9579365576 0.97711
18.4567727508 0.962374
18.9556091942 0.908677
19.4544458878 0.896497
19.9532828316 0.901708
20.4521200258 0.895643
20.9509574703 0.896804
21.4497951651 0.916977
21.9486331103 0.922863
22.4474713059 0.918233
22.946309752 0.906289
23.4451484485 0.875418
23.9439873955 0.844207
24.4428265931 0.828602
24.9416660412 0.819876
