-24.9285380601 1.41555
-24.4299738851 1.42867
-23.9314094418 1.42273
-23.4328447302 1.43388
-22.9342797504 1.44264
-22.4357145021 1.4422
-21.9371489854 1.43315
-21.4385832004 1.40968
-20.9400171468 1.32593
-20.4414508247 1.20189
-19.9428842341 1.06003
-19.4443173749 0.901896
-18.9457502471 0.729959
-18.4471828507 0.615776
-17.9486151855 0.506412
-17.4500472517 0.42296
-16.9514790491 0.368325
-16.4529105777 0.303911
-15.9543418375 0.253367
-15.4557728284 0.188859
-14.9572035504 0.110893
-14.4586340035 0.025423
-13.9600641877 0
-13.4614941028 0.0199511
-12.9629237489 0.0773979
-12.4643531259 0.203323
-11.9657822338 0.343062
-11.4672110726 0.45071
-10.9686396422 0.487871
-10.4700679425 0.47537
-9.97149597368 0.508703
-9.47292373553 0.547988
-8.97435122806 0.578039
-8.47577845124 0.612504
-7.97720540502 0.623437
-7.47863208939 0.567528
-6.98005850429 0.500017
-6.4814846497 0.523476
-5.98291052558 0.551984
-5.48433613189 0.532732
-4.98576146861 0.506593
-4.48718653568 0.464321
-3.98861133309 0.408218
-3.49003586079 0.334486
-2.99146011876 0.281042
-2.49288410694 0.243362
-1.99430782532 0.280751
-1.49573127384 0.271404
-0.997154452491 0.255757
-0.498577361221 0.256509
0 0.246613
0.498577631209 0.240297
0.997155532438 0.236871
1.49573370373 0.231424
1.9943121451 0.230308
2.49289085661 0.229109
2.99146983828 0.231573
3.49004909015 0.23152
3.98862861224 0.229983
4.48720840461 0.20698
4.98578846728 0.182091
5.48436880028 0.172304
5.98294940366 0.168866
6.48153027744 0.179267
6.98011142167 0.19377
7.47869283638 0.20773
7.9772745216 0.231388
8.47585647736 0.260547
8.97443870371 0.286537
9.47302120068 0.313866
9.97160396829 0.350252
10.4701870066 0.398124
10.9687703156 0.452784
11.4673538954 0.514785
11.965937746 0.53878
12.4645218674 0.584735
12.9631062597 0.634683
13.4616909228 0.668175
13.9602758569 0.695571
14.458861062 0.726875
14.9574465381 0.773392
15.4560322852 0.816596
15.9546183033 0.841526
16.4532045926 0.861924
16.951791153 0.892812
17.4503779847 0.937458
17.9489650875 1.00246
18.4475524615 1.03948
18.9461401069 1.06551
19.4447280235 1.06808
19.9433162115 1.07467
20.4419046709 1.08743
20.9404934017 1.1107
21.439082404 1.13914
21.9376716778 1.17316
22.436261223 1.20275
22.9348510399 1.23096
23.4334411283 1.24968
23.9320314884 1.26714
24.4306221201 1.28501
24.9292130235 1.31411
