-24.9737455313 0.943848
-24.474275265 0.97766
-23.9748048093 1.03185
-23.4753341643 1.06836
-22.9758633299 1.07234
-22.4763923061 1.08516
-21.9769210928 1.09225
-21.4774496902 1.07947
-20.9779780981 1.06672
-20.4785063166 1.06235
-19.9790343456 1.03668
-19.4795621852 0.935579
-18.9800898352 0.931533
-18.4806172958 0.942467
-17.9811445668 0.905317
-17.4816716484 0.785441
-16.9821985404 0.682677
-16.4827252428 0.61383
-15.9832517557 0.56534
-15.483778079 0.525001
-14.9843042127 0.497459
-14.4848301568 0.470327
-13.9853559113 0.485029
-13.4858814761 0.516677
-12.9864068513 0.469749
-12.4869320369 0.400586
-11.9874570328 0.332868
-11.487981839 0.262556
-10.9885064555 0.152878
-10.4890308823 0.075884
-9.98955511942 0.0267535
-9.49007916677 0.000452534
-8.99060302439 0
-8.49112669224 0.0102185
-7.99165017032 0.0156414
-7.49217345861 0.0157281
-6.99269655711 0.0149053
-6.49321946579 0.018123
-5.99374218465 0.0183903
-5.49426471368 0.0233912
-4.99478705285 0.0176124
-4.49530920216 0.0133402
-3.9958311616 0.0110349
-3.49635293114 0.0116522
-2.99687451079 0.0139077
-2.49739590052 0.0150974
-1.99791710032 0.0250876
-1.49843811018 0.0321255
-0.998958930093 0.0556188
-0.499479560036 0.0736574
0 0.105122
0.499479750028 0.141035
0.998959690061 0.179597
1.49843982011 0.202074
1.99792014019 0.210894
2.49740065032 0.208728
2.9968813505 0.199119
3.49636224075 0.1924
3.99584332109 0.19014
4.49532459151 0.177677
4.99480605205 0.193758
5.49428770271 0.220568
5.9937695435 0.24155
6.49325157443 0.262768
6.99273379553 0.30132
7.4922162068 0.350783
7.99169880825 0.374645
8.4911815999 0.377836
8.99066458176 0.381093
9.49014775385 0.378372
9.98963111617 0.383423
10.4891146687 0.385038
10.9885984116 0.373356
11.4880823447 0.36136
11.9875664681 0.354804
12.4870507818 0.344003
12.9865352858 0.331397
13.4860199801 0.3259
13.9855048648 0.313351
14.4849899398 0.277018
14.9844752052 0.215179
15.4839606609 0.164059
15.9834463071 0.172814
16.4829321437 0.213516
16.9824181706 0.252092
17.481904388 0.265582
17.9813907959 0.28101
18.4808773942 0.310709
18.9803641829 0.351313
19.4798511621 0.379437
19.9793383319 0.412982
20.4788256921 0.46047
20.9783132429 0.516419
21.4778009841 0.588777
21.977288916 0.630998
22.4767770383 0.629876
22.9762653513 0.641885
23.4757538548 0.643066
23.9752425489 0.618214
24.4747314336 0.596836
24.974220509 0.581704
