-24.9613856684 0.283194
-24.4621632835 0.286704
-23.9629406814 0.276316
-23.4637178622 0.273798
-22.9644948257 0.276248
-22.4652715719 0.303556
-21.9660481009 0.354118
-21.4668244126 0.406603
-20.9676005071 0.470523
-20.4683763842 0.515829
-19.9691520439 0.534499
-19.4699274864 0.550519
-18.9707027114 0.566009
-18.471477719 0.559851
-17.9722525093 0.545551
-17.4730270821 0.545898
-16.9738014374 0.542418
-16.4745755753 0.534761
-15.9753494957 0.531091
-15.4761231986 0.513788
-14.976896684 0.486422
-14.4776699518 0.497093
-13.9784430021 0.509781
-13.4792158347 0.518671
-12.9799884498 0.531909
-12.4807608472 0.501966
-11.981533027 0.453346
-11.4823049892 0.426714
-10.9830767336 0.444022
-10.4838482604 0.475013
-9.98461956941 0.493708
-9.48539066071 0.495304
-8.98616153426 0.452284
-8.48693219003 0.390351
-7.987702628 0.326129
-7.48847284816 0.251922
-6.98924285049 0.195292
-6.49001263497 0.167827
-5.99078220158 0.15314
-5.49155155029 0.135107
-4.9923206811 0.126261
-4.49308959398 0.101508
-3.99385828891 0.0480455
-3.49462676588 0.0337013
-2.99539502486 0.0223739
-2.49616306584 0.00680777
-1.99693088879 0
-1.4976984937 0.00471153
-0.998465880556 0.0213483
-0.499233049328 0.0380041
0 0.0531967
0.499233267445 0.0722003
0.998466753028 0.08733
1.49770045677 0.0999104
1.99693437868 0.115731
2.49616851879 0.138638
2.99540287711 0.14309
3.49463745366 0.14007
3.99387224846 0.14946
4.49310726153 0.149761
4.99234249289 0.142767
5.49157794256 0.15103
5.99081361056 0.164622
6.49004949689 0.181983
6.9892856016 0.1987
7.48852192469 0.204693
7.98775846618 0.195913
8.48699522609 0.210715
8.98623220444 0.248648
9.48546940124 0.291421
9.98470681653 0.310528
10.4839444503 0.327822
10.9831823026 0.322717
11.4824203734 0.314837
11.9816586628 0.309077
12.4808971708 0.323135
12.9801358973 0.35991
13.4793748425 0.381706
13.9786140063 0.400939
14.4778533887 0.441932
14.9770929898 0.46967
15.4763328096 0.49839
15.9755728481 0.519043
16.4748131053 0.529239
16.9740535812 0.539817
17.473294276 0.542878
17.9725351894 0.535201
18.4717763217 0.569693
18.9710176728 0.653593
19.4702592428 0.765496
19.9695010316 0.814016
20.4687430392 0.817239
20.9679852658 0.840316
21.4672277113 0.889839
21.9664703757 0.91932
22.465713259 0.940502
22.9649563613 0.975215
23.4641996826 1.03435
23.9634432229 1.09271
24.4626869822 1.18704
24.9619309606 1.30144
