-24.9600691275 1.15229
-24.4608730564 1.20851
-23.9616767687 1.2679
-23.4624802646 1.32315
-22.9632835439 1.38135
-22.4640866067 1.45045
-21.964889453 1.52141
-21.4656920827 1.59203
-20.9664944957 1.68283
-20.4672966922 1.78473
-19.9680986721 1.82463
-19.4689004353 1.86237
-18.9697019818 1.87102
-18.4705033116 1.84188
-17.9713044247 1.79588
-17.4721053211 1.71895
-16.9729060007 1.63131
-16.4737064636 1.5399
-15.9745067097 1.51405
-15.4753067389 1.42433
-14.9761065514 1.32114
-14.4769061469 1.22005
-13.9777055256 1.1136
-13.4785046875 0.992962
-12.9793036324 0.848089
-12.4801023603 0.670222
-11.9809008714 0.437431
-11.4816991654 0.23448
-10.9824972425 0.116691
-10.4832951026 0.0675445
-9.9840927456 0.0314252
-9.48489017159 0.0234645
-8.9856873805 0.0206269
-8.48648437234 0.0196141
-7.98728114706 0.0267797
-7.48807770466 0.032613
-6.98887404511 0.0760238
-6.48967016839 0.138407
-5.99046607449 0.205273
-5.49126176338 0.254274
-4.99205723505 0.230058
-4.49285248947 0.149305
-3.99364752663 0.0701589
-3.4944423465 0.0307959
-2.99523694907 0.0097133
-2.49603133432 0
-1.99682550222 0.00577585
-1.49761945276 0.0124742
-0.998413185914 0.0188805
-0.499206701668 0.0160006
0 0.0167924
0.499206919109 0.0164526
0.99841405568 0.0142426
1.49762140973 0.0268778
1.99682898128 0.0521657
2.49603677036 0.10039
2.99524477697 0.150748
3.49445300114 0.192693
3.99366144289 0.243506
4.49287010223 0.294784
4.9920789792 0.352308
5.4912880738 0.429419
5.99049738606 0.433396
6.489706916 0.453968
6.98891666363 0.469396
7.48812662898 0.50079
7.98733681206 0.536674
8.4865472129 0.57537
8.98575783152 0.599733
9.48496866792 0.612123
9.98417972214 0.684375
10.4833909942 0.739129
10.9826024841 0.796376
11.4818141919 0.87618
11.9810261175 0.923712
12.4802382611 0.923238
12.9794506226 0.920354
13.4786632021 0.953612
13.9778759995 1.00738
14.4770890149 1.01933
14.9763022484 0.988868
15.4755156998 0.948835
15.9747293693 0.923385
16.4739432569 0.917205
16.9731573626 0.92019
17.4723716863 0.903097
17.9715862282 0.845888
18.4708009882 0.803791
18.9700159664 0.80075
19.4692311628 0.7978
19.9684465774 0.802562
20.4676622102 0.812546
20.9668780612 0.813899
21.4660941305 0.809863
21.9653104181 0.811438
22.464526924 0.824634
22.9637436482 0.802404
23.4629605908 0.777351
23.9621777517 0.75487
24.4613951309 0.734997
24.9606127286 0.72016
