-24.9578664496 1.06622
-24.4587145686 1.0167
-23.9595624657 0.961655
-23.4604101406 0.933421
-22.9612575935 0.913481
-22.4621048243 0.904203
-21.962951833 0.899776
-21.4637986195 0.900837
-20.9646451839 0.903052
-20.4654915261 0.919284
-19.9663376461 0.942451
-19.4671835438 0.985914
-18.9680292193 1.012
-18.4688746726 1.00953
-17.9697199036 1.01394
-17.4705649122 1.01416
-16.9714096986 0.994529
-16.4722542626 1.00859
-15.9730986042 1.02611
-15.4739427234 1.03945
-14.9747866202 1.04646
-14.4756302946 1.06949
-13.9764737465 1.0579
-13.477316976 1.00961
-12.9781599829 0.919009
-12.4790027674 0.83985
-11.9798453293 0.766716
-11.4806876686 0.680618
-10.9815297854 0.579469
-10.4823716796 0.481787
-9.98321335114 0.364313
-9.48405480005 0.267742
-8.9848960263 0.197817
-8.48573702987 0.133396
-7.98657781074 0.0808225
-7.48741836888 0.0370565
-6.98825870428 0.00735631
-6.48909881691 0
-5.98993870675 0.00170128
-5.49077837379 0.00429772
-4.991617818 0.00419282
-4.49245703936 0.00283435
-3.99329603785 0.00456688
-3.49413481345 0.00992638
-2.99497336614 0.0227256
-2.4958116959 0.050047
-1.99664980271 0.0876898
-1.49748768654 0.120172
-0.998325347385 0.141659
-0.49916278521 0.145407
0 0.10985
0.499163008265 0.0537941
0.998326239608 0.0184242
1.49748969405 0.0117286
1.99665337161 0.00887612
2.4958172723 0.00489582
2.99498139616 0.00708848
3.49414574319 0.0100089
3.99331031343 0.011788
4.49247510689 0.0120945
4.99164012359 0.0162415
5.49080536355 0.0281047
5.9899708268 0.0358959
6.48913651335 0.0377758
6.98830242322 0.033939
7.48746855644 0.0324278
7.98663491303 0.0361883
8.485801493 0.0329014
8.98496829638 0.025596
9.48413532319 0.0308945
9.98330257345 0.0615069
10.4824700472 0.12394
10.9816377444 0.199295
11.4808056651 0.269018
11.9799738094 0.323309
12.4791421772 0.363962
12.9783107686 0.413361
13.4774795835 0.446603
13.9766486221 0.466716
14.4758178843 0.493975
14.9749873702 0.516079
15.4741570797 0.539941
15.973327013 0.567456
16.4724971699 0.609174
16.9716675506 0.659134
17.4708381551 0.702631
17.9700089833 0.732194
18.4691800353 0.754426
18.9683513112 0.778186
19.4675228109 0.79965
19.9666945344 0.796677
20.4658664818 0.812827
20.9650386532 0.835112
21.4642110484 0.845878
21.9633836676 0.852356
22.4625565107 0.869188
22.9617295779 0.895848
23.460902869 0.930532
23.9600763842 0.947734
24.4592501234 0.965802
24.9584240866 1.00022
