-24.962992763 0.949063
-24.4637379841 0.955265
-23.9644829983 0.969025
-23.4652278055 0.989496
-22.9659724058 1.01766
-22.4667167992 1.04311
-21.9674609856 1.08314
-21.4682049649 1.11618
-20.9689487373 1.134
-20.4696923026 1.15158
-19.9704356609 1.16384
-19.4711788121 1.16847
-18.9719217562 1.16817
-18.4726644933 1.16698
-17.9734070232 1.1722
-17.4741493459 1.186
-16.9748914615 1.21744
-16.4756333699 1.27137
-15.9763750711 1.33459
-15.4771165651 1.37351
-14.9778578519 1.36788
-14.4785989314 1.38207
-13.9793398036 1.35286
-13.4800804686 1.27412
-12.9808209262 1.18676
-12.4815611765 1.13076
-11.9823012195 1.01442
-11.4830410551 0.900147
-10.9837806833 0.840215
-10.4845201042 0.780192
-9.98525931759 0.700898
-9.48599832356 0.625192
-8.98673712208 0.543688
-8.48747571313 0.39321
-7.98821409669 0.281388
-7.48895227274 0.247435
-6.98969024126 0.229918
-6.49042800224 0.228077
-5.99116555565 0.230413
-5.49190290148 0.238958
-4.99264003971 0.252799
-4.49337697033 0.267709
-3.9941136933 0.2864
-3.49485020862 0.326244
-2.99558651627 0.368335
-2.49632261623 0.397237
-1.99705850847 0.425321
-1.49779419299 0.463447
-0.998529669765 0.511229
-0.499264938774 0.567006
0 0.584398
0.499265146573 0.56475
0.998530500966 0.525041
1.4977960632 0.503321
1.99706183328 0.477751
2.49632781124 0.456438
2.99559399709 0.447871
3.49486039085 0.470937
3.99412699253 0.506385
4.49339380216 0.523601
4.99266081976 0.520551
5.49192804534 0.517654
5.99119547892 0.5192
6.49046312051 0.511547
6.98973097015 0.515318
7.48899902784 0.553184
7.9882672936 0.608872
8.48753576745 0.628907
8.98680444941 0.622885
9.48607333949 0.572631
9.98534243773 0.502758
10.4846117441 0.441265
10.9838812587 0.383791
11.4831509815 0.325714
11.9824209125 0.344593
12.4816910517 0.385752
12.9809613992 0.45083
13.4802319549 0.54209
13.979502719 0.637254
14.4787736913 0.765094
14.978044872 0.882016
15.477316261 0.898732
15.9765878584 0.871635
16.4758596642 0.790315
16.9751316783 0.697043
17.4744039009 0.616803
17.9736763319 0.559535
18.4729489714 0.49719
18.9722218193 0.403494
19.4714948757 0.301228
19.9707681407 0.206361
20.4700416141 0.180471
20.9693152961 0.109368
21.4685891866 0.0911989
21.9678632858 0.0440309
22.4671375935 0.0146385
22.9664121098 0.000446651
23.4656868348 0
23.9649617684 0.011068
24.4642369107 0.00418903
24.9635122617 0.00022403
