-24.9738223269 1.60788
-24.4743505337 1.57479
-23.9748785509 1.55568
-23.4754063783 1.58994
-22.9759340159 1.62254
-22.4764614638 1.65713
-21.9769887219 1.71977
-21.4775157903 1.78706
-20.9780426688 1.85009
-20.4785693575 1.91865
-19.9790958563 1.99596
-19.4796221653 2.01525
-18.9801482845 1.78236
-18.4806742138 1.33166
-17.9811999532 0.999051
-17.4817255027 0.855402
-16.9822508623 0.767432
-16.482776032 0.693049
-15.9833010117 0.641094
-15.4838258015 0.618769
-14.9843504013 0.582699
-14.4848748112 0.588643
-13.9853990311 0.603715
-13.4859230609 0.555279
-12.9864469008 0.498583
-12.4869705506 0.476526
-11.9874940104 0.493733
-11.4880172802 0.493467
-10.9885403598 0.453851
-10.4890632494 0.389067
-9.98958594893 0.433582
-9.49010845833 0.481959
-8.99063077762 0.517865
-8.49115290677 0.566347
-7.99167484579 0.533966
-7.49219659464 0.501815
-6.99271815333 0.462282
-6.49323952183 0.432485
-5.99376070014 0.431161
-5.49428168825 0.428938
-4.99480248613 0.418827
-4.49532309378 0.409377
-3.99584351118 0.389481
-3.49636373833 0.381209
-2.9968837752 0.341715
-2.49740362179 0.262027
-1.99792327808 0.175175
-1.49844274406 0.115351
-0.998962019711 0.041453
-0.49948110503 0
0 0.0106734
0.499481295393 0.0239251
0.99896278116 0.0237665
1.49844445731 0.0190997
1.99792632387 0.0182901
2.49740838084 0.0253781
2.99689062824 0.0260924
3.49637306607 0.0232263
3.99585569436 0.0190996
4.49533851311 0.0497354
4.99482152234 0.109526
5.49430472206 0.190948
5.99378811228 0.274578
6.49327169302 0.37227
6.99275546429 0.483485
7.4922394261 0.564756
7.99172357846 0.609685
8.49120792139 0.678536
8.99069245491 0.68958
9.49017717901 0.66572
9.98966209372 0.639732
10.489147199 0.630853
10.988632495 0.644893
11.4881179816 0.65998
11.9876036589 0.711661
12.4870895268 0.758082
12.9865755854 0.806837
13.4860618347 0.861223
13.9855482747 0.908957
14.4850349055 0.96514
14.9845217269 1.02917
15.4840087391 1.07587
15.9834959421 1.08293
16.4829833359 1.0899
16.9824709204 1.08053
17.4819586957 1.09784
17.9814466618 1.15249
18.4809348188 1.21634
18.9804231666 1.27968
19.4799117052 1.30374
19.9794004347 1.2717
20.4788893551 1.18342
20.9783784663 1.15828
21.4778677685 1.12811
21.9773572615 1.13403
22.4768469455 1.13411
22.9763368205 1.12761
23.4758268863 1.11816
23.9753171432 1.10426
24.474807591 1.09772
24.9742982298 1.0869
