-24.97380312 1.5399
-24.4743317087 1.56075
-23.9748601078 1.559
-23.4753883173 1.57191
-22.9759163371 1.59449
-22.4764441672 1.6039
-21.9769718076 1.58636
-21.4774992584 1.56646
-20.9780265194 1.57086
-20.4785535907 1.57401
-19.9790804723 1.56184
-19.4796071641 1.54737
-18.9801336661 1.50588
-18.4806599784 1.39182
-17.9811861009 1.24975
-17.4817120335 1.21079
-16.9822377764 1.16128
-16.4827633294 0.995344
-15.9832886926 0.824231
-15.4838138659 0.647495
-14.9843388494 0.476982
-14.484863643 0.358882
-13.9853882467 0.336848
-13.4859126604 0.37215
-12.9864368843 0.388903
-12.4869609182 0.436822
-11.9874847622 0.471532
-11.4880084162 0.428692
-10.9885318803 0.355594
-10.4890551543 0.286858
-9.98957823837 0.270364
-9.49010113242 0.268509
-8.99062383645 0.289654
-8.49114635043 0.332485
-7.99166867437 0.385619
-7.49219080825 0.423727
-6.99271275205 0.437861
-6.49323450575 0.428731
-5.99375606936 0.409494
-5.49427744285 0.396349
-4.99479862622 0.389697
-4.49531961944 0.395103
-3.99584042252 0.400751
-3.49636103542 0.40492
-2.99688145814 0.420371
-2.49740169068 0.447277
-1.997921733 0.45094
-1.49844158511 0.436233
-0.998961246988 0.3704
-0.499480718622 0.239013
0 0.108752
0.499480908893 0.0579467
0.998962008068 0.024226
1.49844329754 0
1.99792477732 0.0156579
2.49740644742 0.0796145
2.99688830785 0.152164
3.49637035863 0.213799
3.99585259977 0.295983
4.49533503128 0.354063
4.99481765318 0.40586
5.49430046548 0.42869
5.99378346818 0.433396
6.49326666131 0.444504
6.99275004488 0.453758
7.49223361889 0.440404
7.99171738337 0.421012
8.49120133832 0.443894
8.99068548377 0.47817
9.49016981971 0.525541
9.98965434616 0.616133
10.4891390631 0.731268
10.9886239707 0.797282
11.4881090687 0.790747
11.9875943574 0.79721
12.4870798366 0.830401
12.9865655064 0.87336
13.4860513668 0.895412
13.9855374178 0.913918
14.4850236595 0.919504
14.9845100917 0.927441
15.4839967147 0.93923
15.9834835283 0.981864
16.4829705326 1.01969
16.9824577276 1.03735
17.4819451132 1.03915
17.9814326896 1.04003
18.4809204568 1.04511
18.9804084146 1.01573
19.4798965633 0.964946
19.9793849027 0.930116
20.4788734328 0.902511
20.9783621538 0.890113
21.4778510656 0.870992
21.9773401682 0.846712
22.4768294616 0.844024
22.9763189459 0.819251
23.475808621 0.76449
23.975298487 0.734098
24.4747885439 0.724051
24.9742787916 0.725667
