-24.9280459188 1.07564
-24.4294915112 1.11676
-23.9309368385 1.13531
-23.4323819006 1.14727
-22.9338266974 1.08718
-22.4352712289 0.987329
-21.9367154951 0.905985
-21.4381594959 0.874246
-20.9396032314 0.869465
-20.4410467014 0.862824
-19.942489906 0.868063
-19.443932845 0.891719
-18.9453755186 0.903739
-18.4468179265 0.902625
-17.9482600689 0.917668
-17.4497019456 0.928008
-16.9511435566 0.936541
-16.4525849019 0.91512
-15.9540259815 0.874685
-15.4554667953 0.831589
-14.9569073433 0.796589
-14.4583476254 0.803984
-13.9597876416 0.827174
-13.4612273919 0.85999
-12.9626668762 0.915356
-12.4641060946 0.99197
-11.9655450469 0.925541
-11.4669837331 0.788415
-10.9684221532 0.744861
-10.4698603072 0.71106
-9.97129819502 0.579939
-9.47273581662 0.413343
-8.97417317198 0.244914
-8.47561026106 0.127456
-7.97704708382 0.0632174
-7.47848364023 0.0254717
-6.97991993025 0.011131
-6.48135595384 0.00806666
-5.98279171098 0.00826157
-5.48422720163 0.00162824
-4.98566242574 0
-4.48709738329 0.0341979
-3.98853207424 0.124378
-3.48996649856 0.24051
-2.9914006562 0.356756
-2.49283454714 0.391107
-1.99426817134 0.375386
-1.49570152876 0.301431
-0.997134619366 0.22828
-0.498567443124 0.197842
0 0.191964
0.498567710043 0.208415
0.997135687039 0.2201
1.49570393103 0.222656
1.99427244204 0.254362
2.49284122011 0.289184
2.99141026527 0.344406
3.48997957757 0.398248
3.98854915703 0.427444
4.48711900369 0.444184
4.98568911759 0.429277
5.48425949876 0.414957
5.98283014724 0.389911
6.48140106305 0.374088
6.97997224625 0.373273
7.47854369686 0.371607
7.97711541492 0.384322
8.47568740046 0.368352
8.97425965352 0.337196
9.47283217413 0.304342
9.97140496233 0.299291
10.4699780182 0.303968
10.9685513416 0.318283
11.4671249328 0.335016
11.9656987917 0.359259
12.4642729184 0.392262
12.9628473129 0.396619
13.4614219752 0.369076
13.9599969054 0.354079
14.4585721035 0.348001
14.9571475695 0.333221
15.4557233035 0.338102
15.9542993055 0.350085
16.4528755756 0.366357
16.9514521137 0.377702
17.45002892 0.398072
17.9486059944 0.409421
18.447183337 0.419014
18.9457609478 0.434112
19.4443388268 0.453823
19.9429169742 0.478293
20.4414953899 0.507775
20.940074074 0.540475
21.4386530264 0.572161
21.9372322473 0.598557
22.4358117366 0.624184
22.9343914945 0.638154
23.4329715209 0.65281
23.9315518159 0.709606
24.4301323794 0.735851
24.9287132116 0.731152
