-24.950137205 1.79606
-24.451140297 1.86288
-23.9521431511 1.91774
-23.4531457674 1.94886
-22.9541481458 1.97173
-22.4551502864 1.99037
-21.956152189 2.00266
-21.4571538537 2.00253
-20.9581552805 1.96235
-20.4591564692 1.85433
-19.96015742 1.67084
-19.4611581327 1.52041
-18.9621586074 1.34539
-18.463158844 1.13308
-17.9641588424 0.90075
-17.4651586028 0.646189
-16.966158125 0.510269
-16.467157409 0.466308
-15.9681564548 0.41882
-15.4691552623 0.345583
-14.9701538317 0.294121
-14.4711521627 0.27112
-13.9721502554 0.272395
-13.4731481098 0.283047
-12.9741457259 0.313645
-12.4751431035 0.324759
-11.9761402428 0.324339
-11.4771371436 0.325837
-10.978133806 0.342569
-10.4791302299 0.38515
-9.9801264153 0.425594
-9.48112236218 0.452003
-8.9821180705 0.454964
-8.48311354025 0.459248
-7.98410877139 0.45268
-7.48510376391 0.452023
-6.98609851779 0.461152
-6.48709303298 0.465297
-5.98808730948 0.460954
-5.48908134726 0.434924
-4.99007514628 0.366279
-4.49106870654 0.282549
-3.99206202799 0.189281
-3.49305511063 0.109608
-2.99404795442 0.0670728
-2.49504055933 0.0381012
-1.99603292536 0.0152335
-1.49702505246 0.003904
-0.998016940616 0
-0.499008589805 0.00593192
0 0.0229021
0.499008828823 0.01327
0.998017896688 0.0360523
1.49702720362 0.0548531
1.99603674964 0.0464496
2.49504653478 0.0856606
2.99405655907 0.119625
3.49306682251 0.137615
3.99207732515 0.14855
4.49108806699 0.161936
4.99009904808 0.1599
5.48911026843 0.155315
5.98812172807 0.1593
6.48713342702 0.166705
6.9861453653 0.171907
7.48515754295 0.175324
7.98416995998 0.194278
8.48318261642 0.22335
8.98219551229 0.234216
9.48120864762 0.245941
9.98022202244 0.327456
10.4792356368 0.381398
10.9782494906 0.405567
11.477263584 0.436723
11.976277917 0.500529
12.4752924896 0.525053
12.9743073018 0.538332
13.4733223537 0.547903
13.9723376453 0.593873
14.4713531765 0.678066
14.9703689475 0.793582
15.4693849582 0.898778
15.9684012087 0.979971
16.467417699 0.985393
16.9664344292 0.953162
17.4654513991 0.931794
17.964468609 0.951766
18.4634860587 1.0648
18.9625037484 1.16793
19.461521678 1.31819
19.9605398476 1.42134
20.4595582572 1.45548
20.9585769068 1.43668
21.4575957964 1.44436
21.9566149261 1.38669
22.4556342959 1.39134
22.9546539058 1.42647
23.4536737559 1.45914
23.9526938461 1.48562
24.4517141765 1.50607
24.9507347471 1.50607
