-24.9474071366 1.20679
-24.4484648668 1.1791
-23.9495223577 1.12726
-23.4505796092 1.05557
-22.9516366214 0.999748
-22.4526933943 0.972563
-21.9537499277 0.941303
-21.4548062218 0.909159
-20.9558622763 0.887583
-20.4569180914 0.86408
-19.957973667 0.85083
-19.4590290031 0.849747
-18.9600840996 0.860928
-18.4611389566 0.873844
-17.9621935739 0.878609
-17.4632479516 0.863196
-16.9643020896 0.830653
-16.465355988 0.751951
-15.9664096466 0.637971
-15.4674630655 0.529887
-14.9685162446 0.395747
-14.469569184 0.274767
-13.9706218835 0.208765
-13.4716743432 0.130844
-12.972726563 0.0786099
-12.473778543 0.0276903
-11.974830283 0.00684572
-11.475881783 0.00124748
-10.9769330431 0.0095992
-10.4779840632 0.0239412
-9.9790348433 0.0273999
-9.48008538333 0.021789
-8.98113568328 0.0155754
-8.48218574313 0.00948188
-7.98323556285 0.0181293
-7.48428514242 0.0409975
-6.98533448181 0.0618264
-6.486383581 0.0651426
-5.98743243995 0.0672571
-5.48848105865 0.058711
-4.98952943707 0.0388464
-4.49057757518 0.0107099
-3.99162547295 0.00345361
-3.49267313037 0.00256468
-2.99372054739 0.000626017
-2.49476772401 0
-1.99581466019 0.00402049
-1.4968613559 0.00798785
-0.997907811123 0.0101031
-0.498954025833 0.0139077
0 0.0257299
0.4989542664 0.0407535
0.997908773393 0.0559752
1.49686352101 0.0821145
1.99581850926 0.120012
2.49477373819 0.12864
2.99372920781 0.161679
3.49268491816 0.225847
3.99164086925 0.28526
4.49059706112 0.306982
4.98955349379 0.324912
5.48851016728 0.334779
5.98746708162 0.347932
6.48642423684 0.356297
6.98538163296 0.35285
7.48433927002 0.379605
7.98329714802 0.396173
8.48225526701 0.407073
8.981213627 0.371775
9.48017222802 0.377277
9.9791310701 0.375736
10.4780901533 0.369118
10.9770494775 0.366246
11.4760090429 0.363407
11.9749688495 0.357821
12.4739288973 0.352179
12.9728891862 0.341723
13.4718497164 0.330995
13.9708104879 0.326976
14.4697715006 0.32875
14.9687327547 0.326587
15.4676942501 0.325104
15.9666559869 0.328594
16.465617965 0.323885
16.9645801846 0.325523
17.4635426456 0.330195
17.9625053481 0.31861
18.4614682921 0.329166
18.9604314776 0.334619
19.4593949047 0.345479
19.9583585733 0.365153
20.4573224835 0.392162
20.9562866353 0.428684
21.4552510288 0.445226
21.954215664 0.46253
22.4531805408 0.549076
22.9521456594 0.630474
23.4511110198 0.705508
23.9500766219 0.729936
24.4490424658 0.749483
24.9480085515 0.798234
