-24.9294386374 1.15865
-24.4308563689 1.17089
-23.9322738355 1.16765
-23.4336910372 1.16396
-22.9351079738 1.16917
-22.4365246455 1.1709
-21.937941052 1.16597
-21.4393571935 1.17797
-20.9407730699 1.18528
-20.442188681 1.17852
-19.943604027 1.20054
-19.4450191077 1.21162
-18.9464339232 1.20519
-18.4478484733 1.21012
-17.9492627582 1.21171
-17.4506767776 1.22339
-16.9520905316 1.1679
-16.4535040202 1.02235
-15.9549172433 0.865216
-15.4563302009 0.721013
-14.9577428929 0.618935
-14.4591553194 0.572132
-13.9605674802 0.600977
-13.4619793754 0.64643
-12.9633910048 0.642808
-12.4648023686 0.622906
-11.9662134666 0.585537
-11.4676242988 0.556327
-10.9690348651 0.555416
-10.4704451656 0.595734
-9.97185520025 0.629764
-9.47326496893 0.686468
-8.97467447163 0.731856
-8.47608370833 0.73543
-7.97749267899 0.727691
-7.47890138358 0.676271
-6.98030982206 0.5677
-6.48171799439 0.446201
-5.98312590055 0.287862
-5.4845335405 0.139872
-4.9859409142 0.0222853
-4.48734802162 0
-3.98875486273 0.00162484
-3.49016143748 0.0105756
-2.99156774584 0.0194653
-2.49297378779 0.0184816
-1.99437956328 0.0161855
-1.49578507228 0.0166022
-0.997190314759 0.0179191
-0.498595290676 0.0201733
0 0.0218392
0.498595557305 0.023379
0.997191381273 0.0241902
1.49578747194 0.0246083
1.99438382934 0.0220643
2.4929804535 0.0289782
2.99157734447 0.0434406
3.49017450227 0.0763937
3.98877192695 0.104179
4.48736961853 0.133992
4.98596757705 0.18247
5.48456580255 0.238559
5.98316429505 0.284266
6.4817630546 0.305653
6.98036208123 0.309652
7.47896137497 0.307597
7.97756093586 0.318247
8.47616076393 0.324704
8.97476085921 0.316844
9.47336122175 0.329712
9.97196185158 0.381229
10.4705627487 0.44043
10.9691639132 0.468656
11.4677653451 0.467024
11.9663670444 0.470102
12.4649690112 0.47357
12.9635712455 0.490662
13.4621737473 0.518059
13.9607765166 0.550678
14.4593795536 0.58047
14.9579828581 0.62138
15.4565864304 0.658274
15.9551902703 0.690585
16.453794378 0.725819
16.9523987535 0.751287
17.4510033967 0.760093
17.9496083078 0.768945
18.4482134868 0.779672
18.9468189337 0.789212
19.4454246485 0.80083
19.9440306313 0.814687
20.4426368821 0.850508
20.9412434009 0.884633
21.4398501878 0.890951
21.9384572429 0.891782
22.437064566 0.876427
22.9356721574 0.846288
23.434280017 0.82616
23.9328881448 0.81191
24.4314965409 0.804315
24.9301052053 0.801592
