-24.9677499262 1.5643
-24.468399995 1.4634
-23.9690498573 1.34815
-23.4696995129 1.24531
-22.970348962 1.13174
-22.4709982044 1.04582
-21.9716472402 0.977323
-21.4722960693 0.953459
-20.9729446918 0.918594
-20.4735931075 0.900209
-19.9742413166 0.872252
-19.474889319 0.809621
-18.9755371146 0.646495
-18.4761847035 0.500039
-17.9768320856 0.400339
-17.4774792609 0.325921
-16.9781262294 0.258739
-16.4787729911 0.168421
-15.979419546 0.0973313
-15.480065894 0.0460456
-14.9807120352 0.0215174
-14.4813579695 0.0143198
-13.9820036969 0.00243972
-13.4826492174 0
-12.9832945309 0.00158142
-12.4839396375 0.0220178
-11.9845845372 0.0844212
-11.4852292299 0.163729
-10.9858737156 0.24569
-10.4865179943 0.318962
-9.98716206593 0.355959
-9.48780593056 0.351829
-8.98844958813 0.342529
-8.48909303863 0.287787
-7.98973628205 0.222841
-7.49037931836 0.182139
-6.99102214756 0.167612
-6.49166476962 0.159722
-5.99230718453 0.158867
-5.49294939228 0.153148
-4.99359139284 0.158957
-4.49423318621 0.157869
-3.99487477236 0.170283
-3.49551615129 0.193517
-2.99615732297 0.18991
-2.49679828738 0.189711
-1.99743904452 0.198572
-1.49807959437 0.214934
-0.998719936911 0.233542
-0.499360072126 0.246109
0 0.273802
0.499360279481 0.305665
0.998720766336 0.29315
1.49808146058 0.320002
1.99744236222 0.370141
2.49680347129 0.40577
2.99616478779 0.427882
3.49552631174 0.458664
3.99488804316 0.50315
4.49424998206 0.537908
4.99361212846 0.575947
5.49297448238 0.628959
5.99233704382 0.667533
6.49169981282 0.699167
6.99106278937 0.730076
7.4904259735 0.748963
7.98978936522 0.751287
8.48915296456 0.730183
8.98851677152 0.735762
9.48788078611 0.764182
9.98724500837 0.810479
10.4866094383 0.83534
10.9859740759 0.868104
11.4853389212 0.919196
11.9847039743 0.956928
12.484069235 0.976511
12.9834347036 0.921408
13.4828003799 0.871848
13.9821662639 0.840166
14.4815323558 0.835331
14.9808986555 0.840148
15.480265163 0.899929
15.9796318784 0.95553
16.4789988016 0.998417
16.9783659327 1.01622
17.4777332717 0.969464
17.9771008186 0.973339
18.4764685734 1.05055
18.9758365362 1.14639
19.4752047069 1.30046
19.9745730856 1.4247
20.4739416722 1.48482
20.9733104669 1.52644
21.4726794696 1.53005
21.9720486803 1.45752
22.4714180991 1.45075
22.9707877259 1.44649
23.4701575608 1.4464
23.9695276038 1.41025
24.468897855 1.38924
24.9682683142 1.38721
