-24.929432218 1.34553
-24.4308500768 1.3512
-23.9322676708 1.32827
-23.4336849999 1.2543
-22.935102064 1.15354
-22.4365188631 1.06219
-21.9379353972 1.01366
-21.4393516662 0.965202
-20.9407676702 0.838017
-20.4421834091 0.702385
-19.9435988827 0.572271
-19.4450140912 0.469884
-18.9464290345 0.376696
-18.4478437125 0.340041
-17.9492581252 0.326954
-17.4506722726 0.30806
-16.9520861546 0.322058
-16.4534997712 0.352568
-15.9549131223 0.374652
-15.456326208 0.318291
-14.9577390282 0.239742
-14.4591515828 0.267183
-13.9605638719 0.350106
-13.4619758953 0.390226
-12.9633876531 0.402428
-12.4647991453 0.352706
-11.9662103717 0.292657
-11.4676213323 0.281501
-10.9690320272 0.276573
-10.4704424562 0.297829
-9.97185261941 0.390172
-9.47326251671 0.492918
-8.97467214809 0.539655
-8.4760815135 0.502542
-7.97749061292 0.446683
-7.47889944631 0.421
-6.98030801364 0.410624
-6.48171631487 0.399741
-5.98312434996 0.36949
-5.48453211888 0.275439
-4.98593962161 0.12993
-4.48734685809 0.0625378
-3.9887538283 0.012611
-3.4901605322 0
-2.99156696976 0.0294445
-2.49297314095 0.0551598
-1.99437904572 0.0703069
-1.49578468405 0.0988563
-0.997190055892 0.127364
-0.498595161221 0.134356
0 0.130237
0.498595427806 0.141465
0.997191122232 0.165195
1.49578708331 0.193563
1.99438331108 0.227123
2.49297980557 0.266422
2.99157656682 0.300585
3.49017359487 0.31534
3.98877088974 0.34273
4.48736845147 0.376066
4.9859662801 0.4106
5.48456437567 0.436102
5.98316273819 0.462983
6.48176136772 0.487878
6.98036026429 0.503318
7.47895942792 0.526782
7.97755885866 0.552707
8.47615855653 0.565651
8.97475852158 0.582035
9.47335875384 0.569821
9.97195925334 0.58297
10.4705600201 0.581509
10.9691610542 0.574145
11.4677623556 0.573799
11.9663639245 0.570316
12.4649657607 0.569314
12.9635678644 0.572114
13.4621702355 0.561619
13.9607728742 0.554025
14.4593757804 0.536442
14.9579789543 0.538224
15.4565823957 0.536292
15.9551861048 0.556651
16.4537900816 0.562716
16.9523943261 0.57796
17.4509988384 0.598879
17.9496036185 0.614697
18.4482086664 0.635347
18.9468139822 0.66473
19.4454195658 0.690612
19.9440254174 0.71117
20.442631537 0.70792
20.9412379245 0.681461
21.4398445801 0.656337
21.9384515038 0.63445
22.4370586956 0.627568
22.9356661555 0.623097
23.4342738836 0.628734
23.9328818798 0.614353
24.4314901444 0.610098
24.9300986772 0.623559
