-24.9737263458 1.16593
-24.4742564609 1.2326
-23.9747863867 1.22264
-23.4753161233 1.1978
-22.9758456706 1.19406
-22.4763750286 1.20381
-21.9769041973 1.20734
-21.4774331766 1.18636
-20.9779619666 1.17302
-20.4784905673 1.11787
-19.9790189786 1.04881
-19.4795472005 0.93923
-18.980075233 0.83909
-18.4806030761 0.779214
-17.9811307298 0.746319
-17.4816581941 0.735757
-16.9821854689 0.73741
-16.4827125543 0.74385
-15.9832394502 0.762464
-15.4837661566 0.791537
-14.9842926735 0.879004
-14.4848190009 0.982427
-13.9853451388 1.05473
-13.4858710871 1.03627
-12.9863968459 1.04829
-12.4869224151 1.02726
-11.9874477948 0.943613
-11.4879729848 0.767595
-10.9884979853 0.576708
-10.4890227961 0.398161
-9.98954741736 0.261444
-9.49007184894 0.158636
-8.99059609086 0.0875579
-8.49112014312 0.0455998
-7.9916440057 0.0319902
-7.49216767859 0.0243817
-6.99269116177 0.0251645
-6.49321445524 0.0300666
-5.99373755897 0.04207
-5.49426047296 0.041796
-4.99478319719 0.0285786
-4.49530573165 0.0201192
-3.99582807633 0.0140505
-3.49635023121 0.00997981
-2.99687219628 0.00683427
-2.49739397153 0.00240933
-1.99791555695 0.000759922
-1.49843695251 0
-0.99895815822 0.000555121
-0.499479174053 0.00668312
0 0.0248378
0.499479363952 0.0347736
0.998958917817 0.0488197
1.49843866161 0.103517
1.99791859534 0.165277
2.49739871902 0.185871
2.99687903266 0.177953
3.49635953628 0.157467
3.99584022989 0.152639
4.4953211135 0.153578
4.99480218713 0.155245
5.49428345079 0.148867
5.99376490448 0.141767
6.49324654823 0.131624
6.99272838205 0.128173
7.49221040595 0.138141
7.99169261994 0.149543
8.49117502403 0.139886
8.99065761825 0.1483
9.49014040259 0.127283
9.98962337708 0.118154
10.4891065417 0.102792
10.9885898965 0.0923446
11.4880734415 0.0919531
11.9875571767 0.0929662
12.4870411021 0.0865669
12.9865252178 0.0827524
13.4860095236 0.0852628
13.9854940197 0.0974815
14.4849787061 0.122217
14.9844635827 0.168159
15.4839486496 0.222775
15.9834339068 0.280237
16.4829193543 0.333684
16.9824049922 0.365609
17.4818908204 0.395403
17.9813768389 0.418227
18.4808630478 0.444595
18.980349447 0.467801
19.4798360367 0.441243
19.9793228167 0.414387
20.4788097872 0.392595
20.9782969481 0.390074
21.4777842994 0.404581
21.9772718412 0.412629
22.4767595734 0.427372
22.9762474961 0.442628
23.4757356093 0.451602
23.975223913 0.475324
24.4747124073 0.521862
24.974201092 0.572884
