-24.9678033593 0.592572
-24.4684523661 0.628813
-23.9691011661 0.665162
-23.4697497592 0.659115
-22.9703981454 0.662651
-22.4710463247 0.647742
-21.9716942971 0.626349
-21.4723420626 0.591719
-20.9729896212 0.548812
-20.4736369728 0.573221
-19.9742841174 0.61098
-19.474931055 0.633054
-18.9755777857 0.625287
-18.4762243093 0.576273
-17.9768706258 0.517874
-17.4775167353 0.435269
-16.9781626378 0.355296
-16.4788083331 0.26735
-15.9794538214 0.210986
-15.4800991025 0.149545
-14.9807441765 0.080571
-14.4813890434 0
-13.982033703 0.0391577
-13.4826781555 0.122788
-12.9833224008 0.199581
-12.4839664389 0.296862
-11.9846102698 0.354503
-11.4852538934 0.393413
-10.9858973098 0.414466
-10.4865405188 0.419157
-9.9871835206 0.436002
-9.48782631507 0.456634
-8.98846890222 0.452048
-8.48911128202 0.404513
-7.98975345446 0.364319
-7.49039541953 0.330573
-6.99103717721 0.290677
-6.49167872749 0.269613
-5.99232007035 0.207736
-5.49296120577 0.199602
-4.99360213373 0.212389
-4.49424285423 0.209437
-3.99488336724 0.179891
-3.49552367275 0.162437
-2.99616377075 0.163644
-2.49680366122 0.160377
-1.99744334413 0.165216
-1.49808281948 0.185101
-0.998722087257 0.214689
-0.499361147434 0.270337
0 0.346748
0.499361355061 0.424526
0.998722917765 0.473983
1.49808468813 0.533941
1.99744666616 0.629608
2.49680885189 0.736747
2.99617124533 0.777722
3.49553384648 0.808574
3.99489665538 0.839183
4.49425967202 0.886073
4.99362289644 0.953766
5.49298632864 0.98459
5.99234996864 1.02249
6.49171381646 1.074
6.99107787211 1.11863
7.49044213561 1.14181
7.98980660697 1.15072
8.48917128622 1.19112
8.98853617335 1.24564
9.4879012684 1.30999
9.98726657138 1.39207
10.4866320823 1.48181
10.9859978012 1.49873
11.485363728 1.46404
11.9847298629 1.41733
12.4840962057 1.38068
12.9834627566 1.36891
13.4828295155 1.35008
13.9821964824 1.36252
14.4815636575 1.44912
14.9809310406 1.5097
15.4802986318 1.55467
15.9796664311 1.59043
16.4790344385 1.61606
16.9784026541 1.58032
17.4777710779 1.51757
17.9771397098 1.45041
18.47650855 1.37598
18.9758775983 1.33259
19.4752468549 1.31273
19.9746163197 1.29062
20.4739859928 1.29168
20.9733558741 1.33001
21.4727259637 1.36428
21.9720962616 1.36349
22.4714667679 1.32667
22.9708374825 1.26649
23.4702084054 1.23368
23.9695795367 1.21795
24.4689508763 1.19073
24.9683224244 1.14277
