-24.9631951415 1.35211
-24.4639363288 1.3645
-23.9646773085 1.37202
-23.4654180808 1.36837
-22.9661586456 1.36316
-22.4668990029 1.35603
-21.9676391526 1.36589
-21.4683790948 1.36446
-20.9691188294 1.32017
-20.4698583564 1.17794
-19.9705976758 1.08794
-19.4713367876 1.06267
-18.9720756917 0.990746
-18.4728143881 0.930132
-17.9735528769 0.851705
-17.4742911579 0.796971
-16.9750292313 0.766738
-16.4757670969 0.750269
-15.9765047547 0.748916
-15.4772422048 0.762154
-14.977979447 0.779745
-14.4787164815 0.795635
-13.9794533081 0.808997
-13.4801899269 0.737231
-12.9809263378 0.638979
-12.4816625408 0.5296
-11.9823985359 0.412445
-11.4831343231 0.385211
-10.9838699023 0.391752
-10.4846052736 0.384372
-9.98534043693 0.415654
-9.48607539224 0.469358
-8.98681013954 0.492935
-8.48754467882 0.433813
-7.98827901004 0.390686
-7.48901313319 0.391817
-6.98974704826 0.360287
-6.49048075522 0.320223
-5.99121425406 0.297978
-5.49194754476 0.256574
-4.99268062731 0.196901
-4.49341350167 0.147374
-3.99414616784 0.0998737
-3.4948786258 0.0933436
-2.99561087552 0.100941
-2.496342917 0.108958
-1.9970747502 0.113171
-1.49780637513 0.123339
-0.998537791746 0.142349
-0.499269000043 0.144392
0 0.16535
0.499269208401 0.215288
0.998538625178 0.271011
1.49780825035 0.272201
1.99707808393 0.211953
2.49634812595 0.163595
2.99561837641 0.114656
3.49488883534 0.0588992
3.99415950275 0.0245608
4.49343037867 0.00628786
4.9927014631 0.00212627
5.49197275608 0
5.99124425761 0.000631155
6.49051596771 0.0109955
6.98978788641 0.0332631
7.48906001372 0.0618236
7.98833234966 0.0902176
8.48760489424 0.103942
8.98687764749 0.0925764
9.48615060942 0.0881043
9.98542378006 0.0848964
10.4846971594 0.0788296
10.9839707475 0.0827193
11.4832445443 0.0897979
11.98251855 0.103948
12.4817927644 0.113287
12.9810671876 0.130297
13.4803418196 0.150864
13.9796166605 0.179633
14.4788917102 0.223219
14.9781669689 0.263139
15.4774424364 0.282805
15.9767181128 0.297696
16.4759939982 0.314305
16.9752700925 0.342503
17.4745463958 0.370309
17.9738229081 0.393303
18.4730996294 0.44105
18.9723765597 0.46135
19.4716536991 0.455673
19.9709310475 0.437013
20.470208605 0.405638
20.9694863716 0.389818
21.4687643473 0.377512
21.9680425321 0.373054
22.4673209261 0.368331
22.9665995293 0.356864
23.4658783416 0.36622
23.9651573631 0.373739
24.4644365939 0.38293
24.9637160339 0.398601
