-24.9613520636 1.0387
-24.4621303463 1.04377
-23.9629084121 1.03455
-23.4636862608 1.059
-22.9644638925 1.06267
-22.4652413071 1.01546
-21.9660185046 0.978527
-21.4667954851 0.95874
-20.9675722484 0.915434
-20.4683487947 0.842328
-19.9691251237 0.790911
-19.4699012356 0.714007
-18.9706771303 0.625126
-18.4714528078 0.56188
-17.972228268 0.519856
-17.473003511 0.50904
-16.9737785367 0.475178
-16.4745533452 0.426174
-15.9753279363 0.364276
-15.4761023101 0.349737
-14.9768764666 0.348513
-14.4776504057 0.344461
-13.9784241274 0.329795
-13.4791976317 0.330922
-12.9799709186 0.340092
-12.480743988 0.355209
-11.98151684 0.372663
-11.4822894745 0.377312
-10.9830618916 0.356192
-10.483834091 0.283064
-9.984606073 0.197689
-9.4853778374 0.132996
-8.98614938422 0.0884587
-8.48692071345 0.0344173
-7.98769182507 0.00479907
-7.48846271906 0
-6.98923339539 0.0130308
-6.49000385405 0.016828
-5.99077409503 0.0171765
-5.49154411829 0.0160462
-4.99231392383 0.0169717
-4.49308351162 0.0197447
-3.99385288165 0.0244795
-3.49462203389 0.0267095
-2.99539096832 0.0285906
-2.49615968494 0.0306908
-1.99692818371 0.0317723
-1.49769646462 0.0345071
-0.998464527652 0.0336535
-0.499232372785 0.0278138
0 0.0347453
0.499232590722 0.055993
0.9984653994 0.0811964
1.49769842605 0.101674
1.9969316707 0.113331
2.49616513336 0.156457
2.99539881405 0.212837
3.49463271279 0.258319
3.9938668296 0.271753
4.4931011645 0.271235
4.99233571751 0.271547
5.49157048864 0.264907
5.99080547792 0.272317
6.49004068537 0.274798
6.98927611099 0.277742
7.48851175482 0.296184
7.98774761687 0.333664
8.48698369716 0.369865
8.98621999571 0.402462
9.48545651254 0.42867
9.98469324766 0.462201
10.4839302011 0.490357
10.9831673729 0.50642
11.482404763 0.507767
11.9816423715 0.513208
12.4808801984 0.521096
12.9801182437 0.515942
13.4793565074 0.513073
13.9785949896 0.534194
14.4778336902 0.564128
14.9770726094 0.568276
15.476311747 0.583244
15.9755511032 0.60644
16.4747906779 0.627606
16.9740304711 0.656434
17.473270483 0.762529
17.9725107134 0.870034
18.4717511625 0.948407
18.9709918301 0.975076
19.4702327165 1.03248
19.9694738215 1.103
20.4687151452 1.21381
20.9679566876 1.2736
21.4671984488 1.29138
21.9664404287 1.27787
22.4656826274 1.28483
22.9649250448 1.28343
23.4641676811 1.28458
23.9634105362 1.28236
24.4626536101 1.26298
24.9618969029 1.23277
