-24.9633675482 1.25578
-24.4641052978 1.25882
-23.9648428395 1.27397
-23.4655801733 1.25418
-22.9663172992 1.2613
-22.4670542171 1.26278
-21.9677909271 1.2668
-21.4685274291 1.27684
-20.969263723 1.28778
-20.469999809 1.28972
-19.9707356869 1.27922
-19.4714713567 1.25699
-18.9722068185 1.24035
-18.4729420721 1.22451
-17.9736771177 1.17756
-17.4744119551 1.08353
-16.9751465844 0.885683
-16.4758810055 0.814229
-15.9766152184 0.786105
-15.4773492231 0.714424
-14.9780830195 0.60627
-14.4788166078 0.525762
-13.9795499878 0.466411
-13.4802831595 0.399101
-12.9810161229 0.336549
-12.481748878 0.325518
-11.9824814247 0.333824
-11.4832137631 0.331847
-10.9839458932 0.337345
-10.4846778148 0.355891
-9.98540952804 0.356442
-9.48614103286 0.345828
-8.98687232924 0.353524
-8.48760341716 0.335897
-7.98833429661 0.277017
-7.48906496755 0.18086
-6.98979542999 0.0985337
-6.49052568389 0.0635988
-5.99125572924 0.0380085
-5.49198556602 0.0244505
-4.99271519422 0.0146376
-4.49344461381 0
-3.99417382479 0.00435305
-3.49490282712 0.0151248
-2.99563162079 0.0428512
-2.49636020579 0.0831116
-1.99708858209 0.118812
-1.49781674968 0.141012
-0.998544708542 0.161743
-0.499272458654 0.16619
0 0.166871
0.499272667438 0.17833
0.998545543679 0.217748
1.49781862874 0.254433
1.99709192264 0.292364
2.49636542539 0.332019
2.99563913702 0.361704
3.49491305754 0.361604
3.99418718698 0.331147
4.49346152534 0.299691
4.99273607264 0.305216
5.49201082891 0.320097
5.99128579416 0.322797
6.49056096842 0.358807
6.98983635168 0.405861
7.48911194399 0.452713
7.98838774535 0.511499
8.48766375578 0.551182
8.9869399753 0.582248
9.48621640393 0.627319
9.98549304168 0.671675
10.4847698886 0.666743
10.9840469446 0.664457
11.4833242099 0.654809
11.9826016843 0.651666
12.481879368 0.683654
12.9811572608 0.732991
13.480435363 0.787257
13.9797136744 0.828998
14.478992195 0.851002
14.978270925 0.868247
15.4775498643 0.903408
15.976829013 0.93114
16.476108371 0.952439
16.9753879384 0.976173
17.4746677152 1.0018
17.9739477014 1.01895
18.473227897 1.02599
18.972508302 1.06602
19.4717889166 1.14414
19.9710697406 1.18413
20.4703507741 1.19973
20.9696320171 1.20725
21.4689134697 1.19596
21.9681951318 1.18137
22.4674770035 1.15864
22.9667590848 1.14743
23.4660413757 1.15027
23.9653238762 1.15864
24.4646065863 1.16549
24.9638895061 1.15741
