-24.9634363665 0.937316
-24.4641727488 0.868798
-23.9649089228 0.797828
-23.4656448886 0.834207
-22.9663806461 0.874179
-22.4671161952 0.904086
-21.967851536 0.905662
-21.4685866685 0.923726
-20.9693215925 0.915873
-20.4700563082 0.90514
-19.9707908155 0.909248
-19.4715251143 0.905132
-18.9722592047 0.916602
-18.4729930866 0.93179
-17.97372676 0.927901
-17.474460225 0.964104
-16.9751934814 1.04657
-16.4759265293 1.10435
-15.9766593686 1.04998
-15.4773919993 0.992689
-14.9781244214 0.93062
-14.478856635 0.870599
-13.9795886399 0.82956
-13.4803204361 0.886213
-12.9810520237 0.996195
-12.4817834026 1.1215
-11.9825145728 1.23364
-11.4832455343 1.30942
-10.983976287 1.38219
-10.484706831 1.25666
-9.98543716624 0.963947
-9.48616729266 0.692597
-8.98689721027 0.503517
-8.48762691905 0.388087
-7.98835641898 0.297949
-7.48908571004 0.226021
-6.98981479223 0.104067
-6.49054366551 0.0587861
-5.99127232988 0.0360404
-5.4920007853 0.0269256
-4.99272903177 0.02343
-4.49345706927 0.0204849
-3.99418489778 0.016888
-3.49491251728 0.0135833
-2.99563992775 0.00920257
-2.49636712918 0.00555495
-1.99709412154 0.00262464
-1.49782090482 0
-0.998547479004 0.000427522
-0.499273844069 0.00442396
0 0.00866853
0.499274053223 0.0119243
0.998548315616 0.0186487
1.4978227872 0.0208992
1.99709746799 0.0230563
2.496372358 0.0337841
2.99564745726 0.0417372
3.49492276578 0.0633509
3.99419828357 0.10042
4.49347401067 0.158552
4.99274994707 0.234894
5.49202609281 0.360867
5.9913024479 0.456017
6.49057901236 0.50131
6.98985578621 0.519766
7.48913276946 0.518853
7.98840996213 0.547888
8.48768736424 0.57903
8.98696497581 0.62462
9.48624279685 0.665703
9.98552082739 0.674231
10.4847990674 0.668337
10.984077517 0.675301
11.4833561761 0.707295
11.9826350448 0.753584
12.4819141231 0.846188
12.981193411 0.891967
13.4804729085 0.938145
13.9797526156 0.97001
14.4790325324 0.959821
14.9783126588 1.01165
15.477592995 1.07297
15.9768735408 1.0764
16.4761542964 1.09658
16.9754352617 1.16823
17.4747164368 1.2543
17.9739978217 1.33228
18.4732794163 1.37997
18.9725612208 1.41566
19.4718432351 1.45616
19.9711254592 1.49119
20.4704078933 1.52039
20.9696905372 1.54139
21.468973391 1.54068
21.9682564547 1.53331
22.4675397284 1.56699
22.966823212 1.5378
23.4661069056 1.50168
23.9653908092 1.47877
24.4646749228 1.41663
24.9639592464 1.34744
