-24.9737839185 1.1554
-24.4743128889 1.16109
-23.9748416699 1.19466
-23.4753702613 1.22018
-22.9758986631 1.21659
-22.4764268754 1.21781
-21.976954898 1.21055
-21.4774827311 1.1866
-20.9780103745 1.12568
-20.4785378283 1.05828
-19.9790650925 1.00938
-19.4795921669 1.00047
-18.9801190518 0.946682
-18.4806457469 0.864547
-17.9811722524 0.782345
-17.4816985681 0.747792
-16.9822246941 0.715121
-16.4827506304 0.664574
-15.9832763769 0.579835
-15.4838019336 0.425788
-14.9843273006 0.340023
-14.4848524778 0.313419
-13.9853774652 0.273509
-13.4859022628 0.161167
-12.9864268705 0.0488339
-12.4869512885 0.00433934
-11.9874755165 0.019545
-11.4879995547 0
-10.988523403 0.000639018
-10.4890470614 0.0233246
-9.98957052993 0.0433839
-9.49009380852 0.0666978
-8.99061689718 0.100869
-8.4911397959 0.138239
-7.99166250465 0.170758
-7.49218502344 0.193754
-6.99270735225 0.203114
-6.49322949105 0.189872
-5.99375143985 0.181219
-5.49427319863 0.172829
-4.99479476737 0.160022
-4.49531614606 0.135538
-3.99583733469 0.1297
-3.49635833325 0.127638
-2.99687914172 0.150033
-2.49739976009 0.193103
-1.99792018835 0.260036
-1.49844042648 0.285306
-0.998960474479 0.334084
-0.499480332321 0.337622
0 0.264885
0.499480522499 0.16894
0.998961235187 0.0961001
1.49844213808 0.0701646
1.99792323118 0.0382984
2.49740451452 0.0560572
2.9968859881 0.0522087
3.49636765193 0.0456394
3.99584950603 0.0813596
4.4953315504 0.10725
4.99481378508 0.128236
5.49429621005 0.150441
5.99377882535 0.173485
6.49326163097 0.224598
6.99274462694 0.288614
7.49222781327 0.342476
7.99171118997 0.349061
8.49119475705 0.374756
8.99067851453 0.389525
9.49016246241 0.395396
9.98964660071 0.408005
10.4891309295 0.475133
10.9886154486 0.525075
11.4881001583 0.573259
11.9875850584 0.605603
12.487070149 0.619697
12.9865554301 0.626714
13.4860409017 0.648004
13.9855265638 0.668581
14.4850124165 0.688856
14.9844984597 0.690408
15.4839846935 0.693395
15.9834711178 0.676723
16.4829577328 0.660059
16.9824445383 0.656566
17.4819315345 0.656666
17.9814187212 0.655391
18.4809060987 0.647636
18.9803936667 0.637464
19.4798814254 0.621522
19.9793693748 0.564046
20.4788575149 0.510401
20.9783458457 0.477211
21.4778343672 0.457261
21.9773230795 0.438148
22.4768119824 0.448935
22.9763010762 0.483025
23.4757903606 0.506925
23.9752798359 0.529742
24.474769502 0.551587
24.9742593588 0.593389
