-24.973841539 1.43944
-24.4743693639 1.57285
-23.974896999 1.66351
-23.4754244443 1.71166
-22.9759516997 1.72869
-22.4764787652 1.74143
-21.9770056409 1.751
-21.4775323267 1.71959
-20.9780588226 1.68358
-20.4785851285 1.64491
-19.9791112446 1.49306
-19.4796371707 1.26659
-18.9801629069 1.08589
-18.4806884531 0.924377
-17.9812138093 0.748035
-17.4817389755 0.635966
-16.9822639518 0.637328
-16.482788738 0.675237
-15.9833133342 0.69637
-15.4838377404 0.684931
-14.9843619565 0.669718
-14.4848859825 0.644818
-13.9854098184 0.620675
-13.4859334643 0.602056
-12.98645692 0.568446
-12.4869801857 0.526394
-11.9875032612 0.527531
-11.4880261465 0.526988
-10.9885488417 0.52327
-10.4890713468 0.511507
-9.98959366161 0.514293
-9.49011578626 0.516758
-8.99063772069 0.508591
-8.49115946491 0.492487
-7.99168101889 0.469461
-7.49220238262 0.448563
-6.99272355609 0.424473
-6.49324453928 0.397601
-5.99376533219 0.348822
-5.4942859348 0.290763
-4.9948063471 0.196195
-4.49532656907 0.121774
-3.9958466007 0.0445369
-3.49636644198 0.0186514
-2.99688609289 0.00608828
-2.49740555343 0.00330467
-1.99792482357 0.000992066
-1.49844390332 0
-0.998962792645 4.40152e-05
-0.499481491543 0.000204829
0 0.00422625
0.499481681998 0.00600546
0.998963554463 0.0189013
1.49844561741 0.0389971
1.99792787085 0.0289506
2.49741031479 0.0159237
2.99689294926 0.0082627
3.49637577425 0.00905592
3.99585878979 0.0154503
4.49534199589 0.0312962
4.99482539255 0.0350873
5.4943089798 0.022124
5.99379275765 0.00911059
6.4932767261 0.0329469
6.99276088517 0.0966668
7.49224523488 0.147993
7.99172977524 0.203593
8.49121450625 0.276026
8.99069942794 0.396038
9.49018454031 0.548932
9.98966984338 0.630225
10.4891553372 0.687566
10.9886410217 0.72593
11.4881268969 0.739359
11.9876129629 0.729703
12.4870992197 0.724176
12.9865856672 0.715302
13.4860723055 0.703853
13.9855591346 0.719481
14.4850461545 0.74294
14.9845333653 0.789749
15.4840207669 0.889758
15.9835083593 0.973055
16.4829961426 1.03887
16.9824841168 1.11256
17.4819722818 1.14771
17.9814606378 1.16018
18.4809491847 1.17048
18.9804379225 1.20892
19.4799268513 1.25533
19.979415971 1.33064
20.4789052816 1.41077
20.9783947833 1.44658
21.4778844759 1.45302
21.9773743595 1.48293
22.4768644342 1.46665
22.9763546999 1.45683
23.4758451566 1.42765
23.9753358043 1.41102
24.4748266432 1.3875
24.9743176731 1.3552
