-24.9633331598 0.99929
-24.4640715927 1.02519
-23.9648098178 1.01365
-23.4655478352 0.996601
-22.9662856449 1.00349
-22.4670232468 1.02115
-21.9677606409 1.02635
-21.4684978272 1.01784
-20.9692348057 1.00968
-20.4699715764 0.982258
-19.9707081392 0.915199
-19.4714444941 0.834034
-18.9721806411 0.781422
-18.4729165802 0.727821
-17.9736523114 0.713757
-17.4743878347 0.711675
-16.97512315 0.702616
-16.4758582573 0.704763
-15.9765931565 0.714505
-15.4773278478 0.665188
-14.978062331 0.637256
-14.4787966062 0.62537
-13.9795306733 0.565217
-13.4802645323 0.497173
-12.9809981832 0.467395
-12.481731626 0.490614
-11.9824648606 0.493456
-11.483197887 0.514527
-10.9839307053 0.544818
-10.4846633154 0.608488
-9.98539571723 0.666364
-9.48612791083 0.710261
-8.98685989618 0.668795
-8.48759167326 0.635569
-7.98832324204 0.636999
-7.48905460251 0.616763
-6.98978575466 0.583899
-6.49051669845 0.563147
-5.99124743388 0.496816
-5.49197796093 0.409902
-4.99270827958 0.296994
-4.4934383898 0.179955
-3.99416829159 0.0759464
-3.49489798493 0.0120045
-2.99562746979 0.00562453
-2.49635674616 0.00175338
-1.99708581402 0.000228676
-1.49781467335 0
-0.998543324136 0.00113198
-0.499271766359 0.001648
0 0.00191021
0.499271974959 0.00725606
0.998544158535 0.00927643
1.49781655075 0.0149926
1.99708915161 0.0307992
2.49636196115 0.0450821
2.99563497938 0.0753174
3.49490820631 0.106007
3.99418164198 0.133223
4.49345528638 0.165355
4.99272913955 0.179745
5.49200320149 0.177233
5.99127747224 0.174376
6.4905519518 0.176163
6.98982664019 0.190848
7.48910153743 0.216267
7.98837664355 0.235563
8.48765195855 0.247443
8.98692748245 0.280978
9.48620321528 0.339287
9.98547915705 0.390377
10.4847553078 0.418608
10.9840316675 0.455233
11.4833082362 0.47863
11.9825850139 0.501697
12.4818620007 0.5416
12.9811391964 0.601799
13.4804166013 0.63858
13.9796942152 0.681486
14.4789720383 0.699609
14.9782500705 0.699486
15.4775283118 0.743655
15.9768067622 0.762573
16.4760854219 0.749238
16.9753642907 0.746445
17.4746433687 0.765385
17.973922656 0.786846
18.4732021525 0.803282
18.9724818583 0.825537
19.4717617733 0.830114
19.9710418977 0.837226
20.4703222313 0.835825
20.9696027743 0.818784
21.4688835267 0.795533
21.9681644884 0.790172
22.4674456595 0.775893
22.96672704 0.781644
23.46600863 0.794658
23.9652904293 0.807331
24.4645724382 0.829318
24.9638546565 0.874895
