-24.9473200967 1.32422
-24.4483795548 1.27825
-23.9494387741 1.19308
-23.4504977546 1.09969
-22.9515564963 1.02235
-22.4526149992 0.948087
-21.9536732631 0.861699
-21.4547312882 0.722455
-20.9557890744 0.60583
-20.4568466216 0.506594
-19.9579039298 0.433039
-19.4589609991 0.340163
-18.9600178293 0.233249
-18.4610744204 0.121302
-17.9621307725 0.0393656
-17.4631868855 0.00699592
-16.9642427593 0.0184383
-16.465298394 0.0653799
-15.9663537895 0.10489
-15.4674089457 0.0693884
-14.9684638628 0.0244457
-14.4695185406 0
-13.9705729791 0.0522129
-13.4716271782 0.137329
-12.9726811381 0.208345
-12.4737348585 0.332671
-11.9747883396 0.471848
-11.4758415813 0.473624
-10.9768945835 0.380851
-10.4779473462 0.259272
-9.97899986947 0.150274
-9.4800521532 0.0853174
-8.98110419737 0.0675419
-8.48215600197 0.0627809
-7.98320756696 0.0619563
-7.48425889233 0.0649935
-6.98530997805 0.0694275
-6.48636082409 0.0720214
-5.98741143042 0.0718621
-5.48846179703 0.0687109
-4.98951192387 0.0665322
-4.49056181093 0.0710445
-3.99161145819 0.0763126
-3.49266086561 0.082941
-2.99371003317 0.0857774
-2.49475896084 0.0811805
-1.9958076486 0.0780362
-1.49685609642 0.0753177
-0.997904304281 0.0732202
-0.498952272148 0.0714996
0 0.0681496
0.49895251219 0.0633953
0.997905264448 0.0589327
1.4968582568 0.0572932
1.99581148927 0.0612783
2.49476496189 0.0702455
2.99371867468 0.0833298
3.49267262766 0.095649
3.99162682087 0.128244
4.49058125433 0.180884
4.98953592806 0.215381
5.48849084209 0.203043
5.98744599645 0.214088
6.48640139116 0.23257
6.98535702625 0.251111
7.48431290174 0.269267
7.98326901766 0.292066
8.48222537404 0.300738
8.9811819709 0.309138
9.48013880826 0.317904
9.97909588616 0.32636
10.4780532046 0.329505
10.9770107637 0.339031
11.4759685633 0.361737
11.9749266036 0.382672
12.4738848845 0.403963
12.9728434062 0.434675
13.4718021685 0.482731
13.9707611716 0.541222
14.4697204155 0.588381
14.9686799001 0.607538
15.4676396256 0.628899
15.9665995919 0.671031
16.465559799 0.74202
16.9645202471 0.830964
17.4634809361 0.92158
17.962441866 0.981855
18.4614030369 1.01968
18.9603644488 1.05532
19.4593261017 1.08659
19.9582879956 1.09932
20.4572501307 1.10294
20.9562125068 1.09792
21.4551751241 1.09957
21.9541379825 1.09111
22.453101082 1.08773
22.9520644228 1.09312
23.4510280048 1.09254
23.9499918281 1.09028
24.4489558926 1.09138
24.9479201985 1.08691
