-24.950059499 1.31514
-24.4510641338 1.31186
-23.9520685313 1.31501
-23.4530726914 1.3108
-22.9540766141 1.28886
-22.4550802994 1.26266
-21.9560837472 1.20561
-21.4570869576 1.20576
-20.9580899305 1.20441
-20.4590926658 1.18344
-19.9600951636 1.16561
-19.4610974238 1.10394
-18.9620994464 1.03882
-18.4631012314 0.987549
-17.9641027787 0.96892
-17.4651040884 0.947938
-16.9661051603 0.904583
-16.4671059946 0.83541
-15.9681065911 0.731771
-15.4691069498 0.646384
-14.9701070707 0.5778
-14.4711069538 0.505762
-13.9721065991 0.415562
-13.4731060064 0.353588
-12.9741051759 0.32287
-12.4751041075 0.28085
-11.9761028011 0.200014
-11.4771012567 0.0975304
-10.9780994744 0.0279329
-10.479097454 0
-9.98009519561 0.00914697
-9.48109269912 0.0279139
-8.98208996455 0.035624
-8.48308699185 0.0615772
-7.98408378101 0.084877
-7.485080332 0.0930361
-6.9860766448 0.0972358
-6.48707271938 0.10267
-5.98806855572 0.111439
-5.4890641538 0.116152
-4.99005951358 0.130901
-4.49105463505 0.170371
-3.99204951818 0.238327
-3.49304416294 0.261329
-2.99403856931 0.276087
-2.49503273727 0.2667
-1.99602666679 0.262224
-1.49702035785 0.273507
-0.998013810421 0.287389
-0.499007024479 0.317695
0 0.379437
0.49900726304 0.430177
0.998014764666 0.456537
1.4970225049 0.474721
1.99603048377 0.496607
2.49503870131 0.54242
2.99404715752 0.585335
3.49305585244 0.602311
3.9920647861 0.602546
4.49107395851 0.617987
4.99008336971 0.643368
5.48909301971 0.655679
5.98810290854 0.671413
6.48711303623 0.692752
6.9861234028 0.715131
7.48513400827 0.738613
7.98414485268 0.7701
8.48315593603 0.823114
8.98216725836 0.853855
9.4811788197 0.897222
9.98019062006 0.92645
10.4792026595 0.888667
10.978214938 0.857084
11.4772274555 0.867933
11.9762402123 0.880074
12.4752532081 0.847637
12.9742664432 0.819299
13.4732799174 0.819875
13.9722936308 0.83122
14.4713075835 0.838593
14.9703217755 0.837752
15.4693362068 0.839249
15.9683508774 0.871875
16.4673657873 0.96104
16.9663809366 1.04281
17.4653963253 1.05951
17.9644119534 1.07864
18.4634278209 1.10828
18.9624439279 1.14938
19.4614602744 1.18096
19.9604768605 1.21119
20.459493686 1.22951
20.9585107511 1.25697
21.4575280558 1.27589
21.9565456002 1.28811
22.4555633841 1.27105
22.9545814077 1.25661
23.453599671 1.29036
23.952618174 1.29532
24.4516369168 1.28676
24.9506558992 1.26231
