-24.9634535797 1.18423
-24.46418962 1.24536
-23.9649254519 1.32156
-23.4656610755 1.36254
-22.9663964907 1.34196
-22.4671316975 1.3077
-21.9678666958 1.295
-21.4686014857 1.3047
-20.9693360671 1.32283
-20.4700704401 1.31312
-19.9708046045 1.27602
-19.4715385604 1.21538
-18.9722723078 1.12383
-18.4730058466 1.03238
-17.9737391768 0.913003
-17.4744722984 0.860725
-16.9752052115 0.790369
-16.4759379159 0.75079
-15.9766704116 0.741679
-15.4774026987 0.749408
-14.9781347771 0.748547
-14.4788666467 0.746424
-13.9795983077 0.738568
-13.4803297599 0.730124
-12.9810610034 0.731268
-12.4817920381 0.768632
-11.982522864 0.805179
-11.483253481 0.847669
-10.9839838893 0.851292
-10.4847140887 0.757279
-9.98544407921 0.550888
-9.48617386086 0.318844
-8.9869034336 0.144131
-8.48763279742 0.0488391
-7.98836195231 0.0227894
-7.48909089823 0.0302717
-6.98981963518 0.0446271
-6.49054816314 0.0406398
-5.99127648209 0.0334031
-5.492004592 0.0246198
-4.99273249287 0.0226796
-4.49346018468 0.0195305
-3.9941876674 0.0171952
-3.49491494102 0.0156806
-2.99564200551 0.0107655
-2.49636886088 0.00614328
-1.99709550708 0
-1.49782194412 0.00381698
-0.998548171961 0.00992297
-0.499274190594 0.00392664
0 0.00106658
0.49927439984 0.00304227
0.998549008942 0.0107446
1.49782382733 0.0195571
1.99709885501 0.0198787
2.49637409201 0.0225584
2.99564953834 0.0317478
3.49492519403 0.049869
3.99420105909 0.0727578
4.49347713353 0.0844646
4.99275341739 0.0951972
5.49202991066 0.135923
5.99130661338 0.207085
6.49058352557 0.251723
6.98986064722 0.289903
7.48913797838 0.323136
7.98841551905 0.384604
8.48769326925 0.539323
8.986971229 0.699478
9.48624939832 0.754105
9.98552777722 0.801705
10.4848063657 0.819006
10.9840851639 0.812547
11.4833641716 0.800753
11.982643389 0.77182
12.4819228161 0.748549
12.9812024529 0.737044
13.4804822994 0.717992
13.9797623557 0.701703
14.4790426216 0.702701
14.9783230974 0.755663
15.4776037829 0.836048
15.9768846782 0.86163
16.4761657834 0.862659
16.9754470983 0.946014
17.4747286232 1.01691
17.9740103578 1.07709
18.4732923024 1.147
18.9725744569 1.20843
19.4718568213 1.20767
19.9711393957 1.20879
20.47042218 1.2369
20.9697051743 1.27629
21.4689883786 1.31339
21.9682717929 1.35985
22.4675554172 1.38773
22.9668392516 1.37878
23.466123296 1.3626
23.9654075506 1.35172
24.4646920152 1.33389
24.9639766899 1.32613
