-24.9678568247 1.00668
-24.4685047688 0.923835
-23.9691525059 0.858944
-23.4698000358 0.805048
-22.9704473585 0.745497
-22.4710944741 0.694887
-21.9717413825 0.675472
-21.4723880837 0.705236
-20.9730345777 0.773363
-20.4736808645 0.792823
-19.974326944 0.768097
-19.4749728163 0.755347
-18.9756184813 0.753329
-18.4762639389 0.761555
-17.9769091893 0.777021
-17.4775542324 0.72778
-16.9781990681 0.771271
-16.4788436964 0.876166
-15.9794881174 0.948122
-15.480132331 0.920246
-14.9807763372 0.834112
-14.4814201359 0.773579
-13.9820637272 0.756372
-13.4827071111 0.757119
-12.9833502875 0.742984
-12.4839932564 0.747729
-11.9846360178 0.766711
-11.4852785717 0.797472
-10.9859209181 0.73103
-10.4865630569 0.681889
-9.98720498815 0.574795
-9.48784671181 0.509084
-8.98848822788 0.477863
-8.48912953634 0.462795
-7.98977063717 0.429769
-7.49041153035 0.392315
-6.99105221588 0.370847
-6.49169269372 0.341171
-5.99233296388 0.292496
-5.49297302633 0.231423
-4.99361288105 0.175235
-4.49425252803 0.137326
-3.99489196726 0.144771
-3.49553119872 0.147247
-2.99617022239 0.139429
-2.49680903826 0.120939
-1.99744764631 0.0726115
-1.49808604652 0.00575512
-0.998724238886 0
-0.499362223384 0.0298192
0 0.0517015
0.499362431282 0.0407387
0.998725070477 0.0285921
1.4980879176 0.0176239
1.99745097267 0.016675
2.4968142357 0.0421311
2.99617770671 0.0775997
3.49554138571 0.0420991
3.99490527272 0.0169999
4.49426936775 0.0317291
4.99363367082 0.11741
5.49299818195 0.206963
5.99236290115 0.301679
6.49172782843 0.381067
6.99109296382 0.34931
7.49045830733 0.296626
7.98982385897 0.293524
8.48918961876 0.346213
8.98855558671 0.487434
9.48792176285 0.630076
9.98728814719 0.756874
10.4866547397 0.881902
10.9860215405 0.979824
11.4853885495 1.10797
11.9847557668 1.26471
12.4841231924 1.36454
12.9834908262 1.47469
13.4828586684 1.58879
13.9822267188 1.65204
14.4815949776 1.71839
14.9809634448 1.7776
15.4803321203 1.84117
15.9797010043 1.88509
16.4790700966 1.91571
16.9784393973 1.93867
17.4778089065 1.95672
17.9771786241 1.96625
18.4765485502 1.96064
18.9759186848 1.93292
19.4752890278 1.86954
19.9746595794 1.79935
20.4740303395 1.75932
20.9734013081 1.751
21.4727724853 1.77938
21.972143871 1.80566
22.4715154654 1.81933
22.9708872683 1.79752
23.4702592799 1.73554
23.9696315001 1.67892
24.4690039289 1.59827
24.9683765665 1.47209
