-24.9280420671 0.910323
-24.4294877359 0.90231
-23.9309331396 0.893995
-23.4323782781 0.878927
-22.9338231514 0.873356
-22.4352677594 0.898602
-21.9367121022 0.922566
-21.4381561795 0.948121
-20.9395999916 0.967961
-20.4410435382 0.993213
-19.9424868194 1.02051
-19.4439298351 1.01661
-18.9453725853 1.02011
-18.44681507 1.02536
-17.948257289 1.03827
-17.4496992425 1.04494
-16.9511409303 1.05294
-16.4525823524 1.06927
-15.9540235088 1.07582
-15.4554643995 1.03109
-14.9569050243 0.946586
-14.4583453834 0.876147
-13.9597854765 0.839942
-13.4612253038 0.880555
-12.9626648651 0.981357
-12.4641041605 1.05479
-11.9655431898 1.13143
-11.4669819531 1.18368
-10.9684204503 1.12275
-10.4698586815 0.939448
-9.97129664642 0.75645
-9.47273434521 0.574978
-8.97417177777 0.361549
-8.47560894408 0.188129
-7.9770458441 0.0859645
-7.47848247779 0.0207867
-6.97991884512 0.00695608
-6.48135494606 0
-5.98279078056 0.00311634
-5.48422634859 0.00485881
-4.98566165012 0.00739957
-4.48709668512 0.0120868
-3.98853145354 0.0223922
-3.48996595535 0.0376523
-2.99140019052 0.0507094
-2.492834159 0.0639017
-1.99426786077 0.0791758
-1.49570129579 0.103495
-0.99713446403 0.131994
-0.498567365443 0.159369
0 0.16818
0.498567632336 0.131343
0.997135531598 0.0857688
1.49570369782 0.06638
1.99427213105 0.0585845
2.49284083131 0.0521779
2.99140979863 0.0489258
3.48997903306 0.0430572
3.98854853463 0.06061
4.48711830338 0.0973162
4.98568833933 0.119397
5.48425864253 0.162732
5.98282921301 0.209633
6.4814000508 0.213995
6.97997115595 0.28414
7.47854252848 0.334241
7.97711416844 0.360901
8.47568607585 0.362172
8.97425825075 0.423457
9.47283069318 0.499326
9.97140340318 0.580874
10.4699763808 0.649594
10.968549626 0.69811
11.4671231389 0.696131
11.9656969195 0.673144
12.4642709678 0.666894
12.9628452839 0.686072
13.4614198678 0.675579
13.9599947196 0.662747
14.4585698392 0.665705
14.9571452268 0.669604
15.4557208823 0.669794
15.9542968058 0.66516
16.4528729973 0.664533
16.9514494569 0.667082
17.4500261845 0.670247
17.9486031803 0.675334
18.4471804442 0.681605
18.9457579764 0.676973
19.4443357767 0.687304
19.9429138454 0.696397
20.4414921823 0.696643
20.9400707875 0.702773
21.4386496612 0.708204
21.9372288032 0.710943
22.4358082137 0.72834
22.9343878927 0.750733
23.4329678401 0.759763
23.9315480562 0.763601
24.4301285408 0.77059
24.928709294 0.77586
