-24.9297968441 1.257
-24.4312075353 1.21177
-23.9326179566 1.17197
-23.4340281078 1.10971
-22.935437989 1.049
-22.4368476001 1.00369
-21.9382569411 0.979564
-21.439666012 0.971728
-20.9410748126 0.970147
-20.442483343 0.96034
-19.9438916032 0.95251
-19.4452995931 0.925072
-18.9467073126 0.906713
-18.4481147618 0.890493
-17.9495219406 0.853259
-17.4509288489 0.805726
-16.9523354868 0.764767
-16.4537418542 0.747952
-15.9551479511 0.753017
-15.4565537773 0.758886
-14.957959333 0.756085
-14.459364618 0.74566
-13.9607696324 0.721191
-13.4621743761 0.672737
-12.963578849 0.629517
-12.4649830511 0.592788
-11.9663869824 0.554677
-11.4677906429 0.516708
-10.9691940325 0.460613
-10.4705971511 0.421267
-9.97199999884 0.389458
-9.47340257557 0.340917
-8.97480488128 0.260995
-8.47620691593 0.199273
-7.97760867949 0.179657
-7.47901017193 0.16933
-6.98041139321 0.156896
-6.48181234329 0.161889
-5.98321302215 0.170438
-5.48461342974 0.169383
-4.98601356604 0.158951
-4.487413431 0.140839
-3.98881302459 0.132248
-3.49021234679 0.136124
-2.99161139754 0.13688
-2.49301017683 0.113873
-1.99440868461 0.0849504
-1.49580692086 0.0650014
-0.997204885524 0.0585522
-0.498602578584 0.0510656
0 0.0283213
0.498602850261 0.00549255
0.997205972234 0.0149787
1.49580936595 0.0145338
1.99441303145 0.00381686
2.49301696877 0
2.99162117794 0.0152835
3.49022565899 0.0223665
3.98883041196 0.0244557
4.48743543688 0.0376084
4.98604073379 0.0748642
5.48464630272 0.148082
5.98325214371 0.247018
6.48185825679 0.365536
6.980464642 0.48489
7.47907129936 0.583635
7.97767822892 0.644269
8.47628543071 0.727266
8.97489290476 0.827701
9.47350065111 0.828485
9.97210866979 0.787144
10.4707169608 0.748839
10.9693255243 0.711001
11.4679343602 0.672757
11.9665434685 0.628777
12.4651528494 0.572243
12.9637625028 0.537682
13.4623724287 0.566494
13.9609826273 0.623817
14.4595930985 0.689348
14.9582038424 0.720367
15.456814859 0.774361
15.9554261483 0.868862
16.4540377105 0.952986
16.9526495454 1.0006
17.4512616532 0.961105
17.9498740338 0.898514
18.4484866874 0.941148
18.9470996139 1.1016
19.4457128134 1.31155
19.9443262859 1.50424
20.4429400315 1.59257
20.9415540502 1.63616
21.4401683419 1.65506
21.9387829069 1.66067
22.437397745 1.64761
22.9360128564 1.65864
23.434628241 1.67018
23.9332438989 1.65867
24.4318598301 1.62357
24.9304760347 1.58758
