-24.9295513767 0.713745
-24.4309669843 0.715525
-23.9323823217 0.690765
-23.4337973887 0.657007
-22.9352121854 0.625955
-22.4366267118 0.613801
-21.9380409677 0.615655
-21.4394549532 0.626437
-20.9408686683 0.638584
-20.4422821128 0.652347
-19.9436952867 0.626843
-19.4451081901 0.590202
-18.9465208229 0.564121
-18.4479331851 0.526406
-17.9493452765 0.522564
-17.4507570972 0.518144
-16.9521686472 0.502909
-16.4535799264 0.500509
-15.9549909348 0.491701
-15.4564016723 0.489717
-14.9578121389 0.49239
-14.4592223346 0.481145
-13.9606322593 0.463
-13.4620419131 0.44749
-12.9634512958 0.42812
-12.4648604074 0.43086
-11.9662692479 0.44573
-11.4676778173 0.449978
-10.9690861155 0.448105
-10.4704941426 0.427628
-9.97190189834 0.401461
-9.47330938285 0.375231
-8.97471659604 0.366398
-8.47612353789 0.381098
-7.97753020836 0.401178
-7.47893660742 0.413209
-6.98034273503 0.406632
-6.48174859115 0.377263
-5.98315417576 0.31682
-5.48455948881 0.287353
-4.98596453028 0.300611
-4.48736930012 0.348498
-3.98877379831 0.376075
-3.4901780248 0.359724
-2.99158197957 0.328142
-2.49298566258 0.240233
-1.9943890738 0.178421
-1.49579221318 0.128518
-0.997195080697 0.0894359
-0.498597676316 0.0741529
0 0.0750231
0.498597948284 0.0680296
0.997196168571 0.0486413
1.4957946609 0.0342166
1.99439342529 0.0217597
2.4929924618 0.00517801
2.99159177044 0
3.49019135127 0.00869196
3.9887912043 0.0203528
4.48739132958 0.0281181
4.98599172713 0.0270798
5.48459239701 0.017765
5.98319333923 0.0476824
6.48179455383 0.133638
6.98039604086 0.186447
7.47899780033 0.246158
7.97759983229 0.452974
8.47620213678 0.652086
8.97480471382 0.828543
9.47340756345 0.891908
9.9720106857 0.908497
10.4706140806 1.01795
10.9692177482 1.14501
11.4678216886 1.25329
11.9664259017 1.3797
12.4650303876 1.49189
12.9636351463 1.59543
13.4622401779 1.69993
13.9608454824 1.76298
14.4594510598 1.76037
14.9580569102 1.72763
15.4566630336 1.76321
15.9552694301 1.79039
16.4538760996 1.80853
16.9524830422 1.80383
17.451090258 1.77297
17.9496977469 1.72441
18.4483055091 1.6606
18.9469135445 1.62244
19.4455218531 1.60468
19.9441304351 1.58014
20.4427392905 1.5466
20.9413484192 1.46017
21.4399578213 1.36763
21.9385674969 1.31452
22.437177446 1.29658
22.9357876686 1.27348
23.4343981647 1.25937
23.9330089344 1.25096
24.4316199778 1.23227
24.9302312948 1.19997
