-24.9338338013 1.06424
-24.4351636088 1.0357
-23.9364931522 1.02349
-23.4378224315 1.02249
-22.9391514466 1.02536
-22.4404801975 1.02333
-21.9418086842 1.0001
-21.4431369066 0.9698
-20.9444648646 0.922596
-20.4457925584 0.856623
-19.9471199877 0.783759
-19.4484471527 0.715248
-18.9497740532 0.64895
-18.4511006892 0.640653
-17.9524270608 0.62302
-17.4537531678 0.61857
-16.9550790102 0.667164
-16.456404588 0.7219
-15.9577299012 0.757508
-15.4590549497 0.72201
-14.9603797336 0.681271
-14.4617042526 0.657693
-13.963028507 0.653768
-13.4643524965 0.621976
-12.9656762212 0.557004
-12.466999681 0.536199
-11.9683228759 0.536437
-11.4696458059 0.514341
-10.9709684709 0.483997
-10.472290871 0.48674
-9.97361300599 0.507227
-9.47493487593 0.486373
-8.97625648079 0.458695
-8.47757782051 0.451558
-7.97889889508 0.451817
-7.48021970446 0.446427
-6.98154024861 0.43698
-6.48286052751 0.408169
-5.98418054112 0.407419
-5.4855002894 0.411785
-4.98681977233 0.393158
-4.48813898988 0.383921
-3.989457942 0.341706
-3.49077662868 0.281507
-2.99209504987 0.246702
-2.49341320554 0.228089
-1.99473109566 0.203578
-1.4960487202 0.175289
-0.997366079124 0.149063
-0.498683172402 0.109147
0 0.0547726
0.498683438115 0.00983982
0.997367141973 0
1.49605111161 0.00944232
1.99473534706 0.0237707
2.49341984835 0.0484802
2.99210461551 0.100284
3.49078964858 0.1452
3.98947494759 0.164002
4.48816051257 0.209575
4.98684634356 0.353377
5.48553244058 0.47143
5.98421880368 0.548893
6.48290543287 0.68264
6.9815923282 0.85224
7.4802794897 0.990388
7.9789669174 1.03093
8.47765461132 1.07212
8.97634257152 1.07662
9.475030798 1.06228
9.97371929082 1.10034
10.47240805 1.17095
10.9710970756 1.22259
11.4697863676 1.10384
11.968475926 1.02774
12.467165751 0.941716
12.9658558424 0.891671
13.4645462005 0.906592
13.9632368251 0.953706
14.4619277163 1.0267
14.9606188742 1.07262
15.4593102988 1.08967
15.9580019901 1.082
16.4566939481 1.05021
16.9553861729 1.01268
17.4540786645 0.976227
17.952771423 0.959484
18.4514644484 0.969319
18.9501577406 1.01863
19.4488512999 1.086
19.947545126 1.13547
20.4462392192 1.19771
20.9449335795 1.23858
21.4436282068 1.23255
21.9423231012 1.18233
22.4410182627 1.17275
22.9397136915 1.17188
23.4384093874 1.17682
23.9371053505 1.1839
24.4358015809 1.19522
24.9344980786 1.19065
