-24.9297914106 0.595151
-24.4312022096 0.564332
-23.9326127387 0.555758
-23.4340229978 0.565803
-22.9354329869 0.561002
-22.4368427059 0.544451
-21.9382521548 0.520311
-21.4396613337 0.48278
-20.9410702424 0.427302
-20.4424788809 0.372214
-19.9438872491 0.34681
-19.4452953471 0.32288
-18.9467031749 0.321161
-18.4481107323 0.308117
-17.9495180193 0.293751
-17.4509250359 0.298594
-16.9523317822 0.287128
-16.4537382579 0.257268
-15.9551444632 0.233571
-15.4565503979 0.223857
-14.957956062 0.187916
-14.4593614556 0.131526
-13.9607665785 0.0698316
-13.4621714307 0.0768573
-12.9635760122 0
-12.464980323 0.0137396
-11.966384363 0.0273344
-11.4677881322 0.0242517
-10.9691916305 0.04806
-10.470594858 0.101966
-9.97199781455 0.12351
-9.47340050015 0.126016
-8.97480291476 0.122637
-8.47620505836 0.117
-7.9776069309 0.103331
-7.47900853235 0.086594
-6.98040986268 0.0802617
-6.48181092185 0.0783871
-5.98321170983 0.0817237
-5.48461222659 0.105857
-4.98601247208 0.123676
-4.48741244627 0.116071
-3.98881214913 0.129951
-3.49021158063 0.153506
-2.99161074073 0.13131
-2.4930096294 0.0674969
-1.99440824659 0.000670445
-1.49580659229 0.0302862
-0.997204666442 0.0319614
-0.498602469025 0.029594
0 0.0337473
0.498602740665 0.0393373
0.997205753006 0.0484573
1.49580903706 0.0606718
1.99441259285 0.0607094
2.49301642043 0.0492681
2.99162051982 0.0644332
3.49022489106 0.104009
3.98882953418 0.128153
4.48743444922 0.14361
4.9860396362 0.141874
5.48464509518 0.140389
5.98325082617 0.144614
6.48185682922 0.177188
6.98046310436 0.294723
7.47906965163 0.412548
7.97767647105 0.496145
8.47628356266 0.557116
8.9748909265 0.652503
9.4734985626 0.657244
9.972106471 0.593295
10.4707146517 0.538234
10.9693231048 0.516009
11.4679318303 0.475137
11.9665408282 0.416022
12.4651500986 0.344204
12.9637596415 0.309231
13.4623694569 0.291755
13.9609795449 0.285699
14.4595899055 0.294435
14.9582005388 0.343988
15.4568114447 0.430881
15.9554226233 0.546539
16.4540340747 0.67482
16.9526457988 0.779358
17.4512577958 0.86538
17.9498700656 1.01024
18.4484826082 1.14841
18.9470954238 1.23695
19.4457085123 1.26446
19.9443218739 1.27108
20.4429355084 1.26233
20.941549416 1.25744
21.4401635966 1.2453
21.9387780504 1.24523
22.4373927774 1.25189
22.9360077775 1.25246
23.4346230508 1.23669
23.9332385974 1.22327
24.4318544173 1.23116
24.9304705105 1.27096
