-24.9295088945 0.927727
-24.4309253445 0.914804
-23.9323415244 0.901587
-23.4337574344 0.891926
-22.9351730743 0.876835
-22.4365884442 0.864992
-21.9380035439 0.845713
-21.4394183735 0.831648
-20.940832933 0.81666
-20.4422472222 0.803423
-19.9436612412 0.790809
-19.4450749899 0.774429
-18.9464884683 0.758319
-18.4479016763 0.75156
-17.9493146139 0.749096
-17.4507272812 0.747963
-16.952139678 0.741375
-16.4535518043 0.731757
-15.95496366 0.717015
-15.4563752452 0.696898
-14.9577865599 0.690772
-14.4591976038 0.695538
-13.9606083772 0.694176
-13.4620188798 0.679329
-12.9634291117 0.647588
-12.4648390728 0.603802
-11.9662487632 0.551093
-11.4676581826 0.499934
-10.9690673313 0.464035
-10.470476209 0.424183
-9.97188481575 0.401845
-9.47329315154 0.380684
-8.97470121633 0.358174
-8.47610901007 0.33183
-7.97751653272 0.287956
-7.47892378427 0.243352
-6.98033076466 0.200369
-6.48173747387 0.150284
-5.98314391186 0.0917986
-5.48455007859 0.0747497
-4.98595597404 0.0904366
-4.48736159816 0.0847908
-3.98876695093 0.0767069
-3.4901720323 0.0786272
-2.99157684225 0.07593
-2.49298138073 0.0443376
-1.99438564772 0.036045
-1.49578964317 0.0251615
-0.997193367059 0.00852981
-0.498596819347 0.0114352
0 0.00922689
0.498597091017 0.00226931
0.997194453739 0
1.4957920882 0.0190702
1.99438999444 0.0451997
2.49298817248 0.137224
2.99158662237 0.242881
3.49018534413 0.121495
3.98878433781 0.133809
4.48738360343 0.204404
4.98598314103 0.214164
5.48458295066 0.245069
5.98318303233 0.307537
6.48178338608 0.326541
6.98038401196 0.302663
7.47898490999 0.285578
7.97758608021 0.265025
8.47618752265 0.224348
8.97478923735 0.172134
9.47339122434 0.17752
9.97199348366 0.198382
10.4705960153 0.245942
10.9691988194 0.301126
11.4678018959 0.343497
11.9664052449 0.390718
12.4650088664 0.430391
12.9636127604 0.470281
13.4622169269 0.511262
13.9608213661 0.550576
14.4594260779 0.572497
14.9580310624 0.59913
15.4566363196 0.642764
15.9552418495 0.718843
16.4538476522 0.799139
16.9524537278 0.886367
17.4510600761 0.978267
17.9496666974 1.03086
18.4482735915 1.07921
18.9468807586 1.13238
19.4454881987 1.13082
19.9440959118 1.05695
20.4427038979 1.0675
20.9413121571 1.1278
21.4399206895 1.14825
21.938529495 1.14427
22.4371385737 1.13807
22.9357479256 1.12549
23.4343575507 1.09454
23.9329674492 1.05923
24.431577621 1.00946
24.9301880661 0.97282
