-24.930211559 0.842268
-24.4316139384 0.824904
-23.9330160486 0.828295
-23.4344178895 0.846613
-22.9358194611 0.853433
-22.4372207632 0.85451
-21.938621796 0.860894
-21.4400225593 0.895234
-20.9414230532 0.946787
-20.4428232775 0.972134
-19.9442232323 0.991483
-19.4456229175 0.988261
-18.9470223331 0.985023
-18.448421479 0.980773
-17.9498203553 0.969798
-17.4512189618 0.966972
-16.9526172986 0.958287
-16.4540153656 0.923957
-15.9554131628 0.845006
-15.4568106901 0.758491
-14.9582079476 0.703199
-14.4596049351 0.671891
-13.9610016526 0.633622
-13.4623981001 0.62771
-12.9637942777 0.614912
-12.4651901851 0.591711
-11.9665858225 0.582332
-11.4679811897 0.564539
-10.9693762867 0.53779
-10.4707711136 0.514474
-9.97216567022 0.499999
-9.47355995656 0.466939
-8.9749539726 0.423784
-8.4763477183 0.396217
-7.97774119363 0.384302
-7.47913439855 0.382852
-6.98052733303 0.386585
-6.48191999703 0.377803
-5.98331239052 0.37021
-5.48470451346 0.355654
-4.98609636583 0.327282
-4.48748794757 0.307815
-3.98887925867 0.286361
-3.49027029909 0.237368
-2.99166106879 0.205747
-2.49305156774 0.165391
-1.9944417959 0.144185
-1.49583175324 0.133395
-0.997221439728 0.114396
-0.498610855326 0.101673
0 0.0820449
0.498611126283 0.0525736
0.997222523558 0.0307189
1.49583419186 0.0137936
1.99444613122 0.00325561
2.49305834168 0
2.99167082326 0.0167847
3.49028357601 0.0881506
3.98889659996 0.172779
4.48750989514 0.207618
4.98612346158 0.181269
5.48473729932 0.238332
5.9833514084 0.310825
6.48196578885 0.401167
6.9805804407 0.492668
7.47919536398 0.510207
7.97781055874 0.518422
8.476426025 0.549613
8.97504176281 0.61237
9.47365777218 0.710051
9.97227405317 0.805859
10.4708906058 0.80605
10.9695074301 0.798272
11.4681245261 0.815247
11.9667418939 0.836166
12.4653595334 0.837059
12.9639774448 0.849302
13.4625956279 0.878943
13.961214083 0.897087
14.45983281 0.911697
14.958451809 0.958293
15.4570710799 0.995365
15.9556906228 1.00908
16.4543104378 1.01062
16.9529305249 0.99144
17.4515508841 0.986813
17.9501715154 0.994284
18.448792419 0.991777
18.9474135947 0.988317
19.4460350428 0.984948
19.9446567631 0.988555
20.4432787557 0.998044
20.9419010207 1.00877
21.4405235581 1.00503
21.9391463679 1.00459
22.4377694501 1.01281
22.9363928049 1.02659
23.4350164322 1.02745
23.933640332 1.00712
24.4322645045 1.01466
24.9308889495 1.06222
