-24.9331865936 0.735447
-24.4345293592 0.704581
-23.9358718601 0.707068
-23.4372140962 0.71224
-22.9385560677 0.705081
-22.4398977743 0.672382
-21.9412392162 0.649895
-21.4425803932 0.647864
-20.9439213053 0.634347
-20.4452619526 0.619636
-19.9466023349 0.614048
-19.4479424522 0.612524
-18.9492823046 0.614001
-18.4506218919 0.620124
-17.9519612141 0.643764
-17.4533002712 0.649779
-16.9546390632 0.651953
-16.45597759 0.64102
-15.9573158517 0.648309
-15.4586538481 0.6877
-14.9599915792 0.726762
-14.461329045 0.748212
-13.9626662455 0.759712
-13.4640031806 0.772425
-12.9653398503 0.764073
-12.4666762546 0.745807
-11.9680123935 0.734718
-11.4693482668 0.740125
-10.9706838746 0.762437
-10.4720192168 0.773163
-9.97335429344 0.77265
-9.47468910445 0.773851
-8.97602364979 0.779627
-8.47735792943 0.758056
-7.97869194335 0.734205
-7.4800256915 0.732972
-6.98135917386 0.726203
-6.48269239039 0.703389
-5.98402534106 0.677849
-5.48535802584 0.661891
-4.98669044469 0.659554
-4.48802259758 0.687743
-3.98935448448 0.710568
-3.49068610535 0.701879
-2.99201746017 0.63809
-2.49334854889 0.591616
-1.99467937149 0.557782
-1.49600992794 0.516707
-0.997340218191 0.471083
-0.498670242223 0.421638
0 0.315352
0.498670508511 0.196669
0.997341283343 0.146383
1.49601232453 0.117954
1.9946836321 0.117612
2.49335520609 0.124971
2.99202704654 0.131845
3.49069915347 0.101286
3.98937152691 0.0319037
4.48804416691 0
4.98671707349 0.057327
5.48539024668 0.191902
5.98406368653 0.310074
6.48273739306 0.457868
6.9814113663 0.619614
7.48008560628 0.72245
7.97876011305 0.826174
8.47743488663 0.872222
8.97610992706 0.847324
9.47478523436 0.841749
9.97346080857 0.825349
10.4721366497 0.816296
10.9708127579 0.811168
11.469489133 0.816283
11.9681657752 0.837073
12.4668426844 0.846049
12.9655198608 0.845357
13.4641973043 0.845568
13.962875015 0.863167
14.4615529929 0.874842
14.960231238 0.868208
15.4589097504 0.866461
15.9575885301 0.875904
16.4562675771 0.901382
16.9549468915 0.869657
17.4536264733 0.834099
17.9523063225 0.828091
18.4509864392 0.829967
18.9496668234 0.820725
19.4483474751 0.809492
19.9470283944 0.80377
20.4457095813 0.803634
20.9443910358 0.803474
21.4430727579 0.801198
21.9417547478 0.781941
22.4404370054 0.769137
22.9391195307 0.762797
23.4378023239 0.776379
23.9364853848 0.806955
24.4351687137 0.81205
24.9338523104 0.822636
