-24.9407673357 0.864675
-24.4419582065 0.86153
-23.943148824 0.847795
-23.4443391882 0.823344
-22.945529299 0.810987
-22.4467191564 0.800063
-21.9479087603 0.778076
-21.4490981109 0.775836
-20.9502872079 0.77547
-20.4514760514 0.762587
-19.9526646414 0.753022
-19.4538529779 0.733005
-18.9550410607 0.71775
-18.4562288899 0.711483
-17.9574164654 0.70782
-17.4586037872 0.693664
-16.9597908553 0.660713
-16.4609776697 0.641117
-15.9621642303 0.600041
-15.4633505371 0.571741
-14.96453659 0.540636
-14.4657223891 0.501902
-13.9669079343 0.462489
-13.4680932256 0.44146
-12.9692782629 0.430888
-12.4704630463 0.438133
-11.9716475756 0.408865
-11.4728318509 0.354042
-10.9740158721 0.312117
-10.4751996392 0.263015
-9.97638315217 0.213291
-9.477566411 0.181509
-8.97874941565 0.168078
-8.47993216607 0.156286
-7.98111466225 0.121867
-7.48229690416 0.0804102
-6.98347889176 0.0607032
-6.48466062504 0.0436328
-5.98584210394 0.0270345
-5.48702332846 0.0381479
-4.98820429856 0.0618258
-4.48938501421 0.0201924
-3.99056547538 0.00180624
-3.49174568204 0.0114337
-2.99292563416 0.0212427
-2.49410533172 0.0261916
-1.99528477468 0.0136981
-1.49646396302 0
-0.997642896707 0.0647295
-0.49882157571 0.107347
0 0.110259
0.49882183045 0.107413
0.99764391567 0.0934399
1.49646625569 0.0758711
1.99528885054 0.065839
2.49411170024 0.0610855
2.99293480483 0.0668554
3.49175816434 0.0710479
3.99058177879 0.060006
4.48940564822 0.0457057
4.98822977264 0.0443595
5.4870541521 0.0495882
5.98587878662 0.0447789
6.48470367623 0.0386174
6.98352882096 0.044437
7.48235422083 0.0787357
7.98117987589 0.119971
8.48000578615 0.181293
8.97883195164 0.250454
9.4776583724 0.354725
9.97648504845 0.462403
10.4753119798 0.538529
10.9741391665 0.692794
11.4729666086 0.823529
11.9717943062 0.921724
12.4706222591 0.90084
12.9694504675 0.919019
13.4682789314 0.960655
13.9671076509 1.01833
14.4659366259 1.07765
14.9647658564 1.13704
15.4635953426 1.16563
15.9624250844 1.15676
16.4612550819 1.14869
16.9600853351 1.1445
17.458915844 1.14178
17.9577466087 1.17749
18.4565776292 1.2032
18.9554089054 1.21484
19.4542404375 1.20019
19.9530722255 1.18814
20.4519042694 1.17082
20.9507365692 1.10465
21.449569125 1.04372
21.9484019368 0.999887
22.4472350045 0.971146
22.9460683284 0.957995
23.4449019083 0.940049
23.9437357442 0.897645
24.4425698364 0.875661
24.9414041847 0.847483
