-24.933192258 0.789211
-24.4345349111 0.76938
-23.9358772996 0.751376
-23.4372194233 0.720818
-22.9385612823 0.696781
-22.4399028764 0.711557
-21.9412442057 0.709291
-21.4425852701 0.691639
-20.9439260696 0.652036
-20.4452666042 0.616222
-19.9466068738 0.59342
-19.4479468784 0.580827
-18.9492866179 0.574107
-18.4506260924 0.567482
-17.9519653018 0.558665
-17.453304246 0.562212
-16.9546429251 0.555755
-16.4559813389 0.54076
-15.9573194875 0.530573
-15.4586573709 0.514661
-14.9599949889 0.50008
-14.4613323416 0.49162
-13.962669429 0.480623
-13.4640062509 0.490688
-12.9653428074 0.492363
-12.4666790984 0.484609
-11.9680151239 0.496109
-11.4693508839 0.536246
-10.9706863783 0.566222
-10.4720216071 0.575053
-9.97335657032 0.560021
-9.47469126783 0.53399
-8.97602569965 0.540535
-8.47735986572 0.576286
-7.97869376604 0.585242
-7.48002740055 0.614133
-6.98136076923 0.601276
-6.48269387205 0.583359
-5.98402670897 0.569421
-5.48535927996 0.557641
-4.98669158499 0.546884
-4.48802362401 0.53539
-3.98935539701 0.555544
-3.49068690395 0.602186
-2.99201814479 0.627982
-2.4933491195 0.638499
-1.99467982806 0.625523
-1.49601027042 0.598765
-0.997340446548 0.550414
-0.49867035642 0.480004
0 0.382925
0.498670622745 0.281619
0.997341511847 0.175576
1.49601266734 0.0954666
1.99468408926 0.0362475
2.49335577763 0.0255099
2.99202773249 0.0226969
3.49069995388 0.0026147
3.98937244182 0
4.48804519635 0.0414453
4.98671821749 0.128908
5.48539150529 0.222707
5.98406505978 0.338574
6.48273888098 0.450674
6.98141296894 0.493548
7.48008732368 0.505328
7.97876194524 0.659254
8.47743683364 0.897236
8.97611198893 1.09898
9.47478741114 1.20315
9.97346310029 1.13794
10.4721390564 1.02608
10.9708152796 0.90444
11.4694917698 0.811695
11.968168527 0.773012
12.4668455514 0.744317
12.9655228429 0.738239
13.4642004016 0.741381
13.9628782275 0.752966
14.4615563207 0.764762
14.9602346811 0.765767
15.4589133088 0.755622
15.9575922039 0.747401
16.4562713664 0.741774
16.9549507962 0.7328
17.4536304935 0.714602
17.9523104582 0.704612
18.4509906905 0.711861
18.9496711903 0.71459
19.4483519577 0.712156
19.9470329926 0.705687
20.4457142952 0.719665
20.9443958655 0.726885
21.4430777034 0.72728
21.9417598091 0.733839
22.4404421826 0.744795
22.9391248238 0.753769
23.4378077329 0.758149
23.9364909098 0.794254
24.4351743547 0.887117
24.9338580674 0.974003
