-24.9331639024 1.15522
-24.4345071181 1.14702
-23.9358500693 1.1113
-23.437192756 1.09592
-22.938535178 1.11762
-22.4398773354 1.12437
-21.9412192282 1.11064
-21.4425608563 1.09996
-20.9439022197 1.09718
-20.4452433183 1.06867
-19.9465841521 1.04057
-19.4479247211 0.993319
-18.9492650253 0.918423
-18.4506050645 0.830684
-17.9519448389 0.813647
-17.4532843483 0.804826
-16.9546235927 0.793588
-16.455962572 0.788013
-15.9573012864 0.779192
-15.4586397356 0.773542
-14.9599779197 0.783925
-14.4613158387 0.785755
-13.9626534925 0.770323
-13.4639908811 0.745174
-12.9653280044 0.730564
-12.4666648625 0.699965
-11.9680014552 0.679879
-11.4693377826 0.667598
-10.9706738446 0.677282
-10.4720096411 0.685581
-9.97334517227 0.687549
-9.47468043792 0.668315
-8.97601543806 0.644335
-8.47735017264 0.619144
-7.97868464165 0.593126
-7.48001884504 0.576392
-6.98135278279 0.561581
-6.48268645486 0.550925
-5.98401986122 0.545717
-5.48535300183 0.55389
-4.98668587667 0.5648
-4.48801848569 0.579142
-3.98935082887 0.602185
-3.49068290617 0.621052
-2.99201471757 0.592647
-2.49334626302 0.544444
-1.9946775425 0.473882
-1.49600855597 0.424564
-0.997339303397 0.389397
-0.498669784752 0.405656
0 0.349347
0.498670050891 0.243783
0.997340367955 0.144069
1.49601095122 0.0729792
1.99468180073 0.043715
2.49335291651 0.0290392
2.99202429859 0.00831066
3.490695947 0
3.98936786179 0.00119096
4.48804004298 0.00471611
4.9867124906 0.0490294
5.48538520469 0.203434
5.98405818528 0.358747
6.4827314324 0.574477
6.98140494609 0.702546
7.48007872638 0.776149
7.9787527733 0.858776
8.47742708688 1.02112
8.97610166716 1.17294
9.47477651417 1.18837
9.97345162794 1.17705
10.4721270085 1.15151
10.9708026559 1.14434
11.4694785702 1.16559
11.9681547513 1.16615
12.4668311994 1.12645
12.9655079144 1.07801
13.4641848964 1.02492
13.9628621455 1.01525
14.4615396616 0.987382
14.9602174448 0.959819
15.4588954951 0.958057
15.9575738125 0.950487
16.4562523972 0.922311
16.9549312491 0.917564
17.4536103682 0.913451
17.9522897546 0.906234
18.4509694083 0.947807
18.9496493294 0.991858
19.4483295179 1.03969
19.9470099737 1.07814
20.4456906971 1.0849
20.9443716879 1.05535
21.4430529462 1.03201
21.941734472 1.02045
22.4404162655 1.00249
22.9390983265 0.980945
23.4377806552 0.983675
23.9364632516 0.98856
24.4351461157 0.989255
24.9338292475 0.987346
