-24.9294985242 0.837549
-24.4309151798 0.820998
-23.9323315656 0.803733
-23.4337476814 0.795025
-22.9351635272 0.79791
-22.436579103 0.807081
-21.9379944088 0.818766
-21.4394094446 0.81343
-20.9408242102 0.794679
-20.4422387057 0.773085
-19.943652931 0.750423
-19.4450668861 0.729235
-18.9464805709 0.710058
-18.4478939855 0.693964
-17.9493071298 0.679315
-17.4507200037 0.666282
-16.9521326072 0.655361
-16.4535449403 0.641928
-15.954957003 0.632427
-15.4563687952 0.624903
-14.9577803168 0.620439
-14.4591915679 0.620002
-13.9606025484 0.618354
-13.4620132582 0.600954
-12.9634236974 0.575702
-12.4648338659 0.553315
-11.9662437637 0.510073
-11.4676533907 0.480985
-10.9690627469 0.466885
-10.4704718323 0.460763
-9.97188064677 0.440466
-9.47328919035 0.411195
-8.97469746299 0.412278
-8.47610546466 0.374217
-7.97751319531 0.296845
-7.47892065492 0.23219
-6.98032784345 0.180771
-6.48173476087 0.160365
-5.98314140713 0.148527
-5.48454778221 0.142944
-4.98595388608 0.132349
-4.48735971868 0.115984
-3.98876528 0.0954931
-3.49017057 0.0725114
-2.99157558863 0.0626578
-2.49298033588 0.0678516
-1.9943848117 0.0665114
-1.49578901605 0.0590563
-0.997192948911 0.0556334
-0.498596610239 0.0564975
0 0.0657207
0.498596881839 0.0773373
0.997194035314 0.0830328
1.49579146046 0.085658
1.99438915731 0.0402115
2.49298712589 0
2.99158536626 0.0113991
3.49018387843 0.0229396
3.98878266244 0.0499412
4.48738171833 0.108781
4.98598104613 0.209795
5.48458064588 0.261156
5.98318051761 0.283302
6.48178066136 0.379396
6.98038107715 0.535224
7.47898176504 0.730715
7.97758272504 0.911666
8.47618395719 1.0333
8.97478546153 1.13793
9.4733872381 1.27629
9.97198928692 1.35236
10.470591608 1.31563
10.9691942015 1.27098
11.4677970673 1.22231
11.9664002055 1.21055
12.4650036161 1.22488
12.9636072992 1.23558
13.4622112548 1.2834
13.9608154829 1.38927
14.4594199836 1.4012
14.9580247569 1.39732
15.4566298028 1.38754
15.9552351214 1.39393
16.4538407128 1.37419
16.9524465768 1.30714
17.4510527136 1.26567
17.9496591233 1.22177
18.4482658057 1.18148
18.9468727611 1.16521
19.4454799894 1.15347
19.9440874906 1.14209
20.4426952648 1.1045
20.941303312 1.06576
21.4399116322 1.04566
21.9385202256 1.03075
22.437129092 1.01405
22.9357382316 1.00821
23.4343476444 1.02592
23.9329573305 1.03835
24.4315672897 1.03913
24.9301775223 1.03094
