-24.9378471832 0.737511
-24.4390965707 0.738527
-23.9403457002 0.746692
-23.4415945718 0.753509
-22.9428431855 0.749473
-22.4440915411 0.746772
-21.9453396386 0.746387
-21.4465874781 0.750716
-20.9478350595 0.765758
-20.4490823827 0.765747
-19.9503294478 0.745849
-19.4515762547 0.723271
-18.9528228033 0.698965
-18.4540690937 0.675372
-17.9553151258 0.661075
-17.4565608995 0.628096
-16.957806415 0.566518
-16.459051672 0.548134
-15.9602966706 0.520053
-15.4615414108 0.490008
-14.9627858925 0.467495
-14.4640301157 0.434588
-13.9652740803 0.404019
-13.4665177864 0.348513
-12.9677612339 0.303339
-12.4690044228 0.261996
-11.970247353 0.230533
-11.4714900245 0.205101
-10.9727324372 0.186564
-10.4739745913 0.169501
-9.97521648653 0.156411
-9.47645812297 0.12811
-8.97769950056 0.0956903
-8.47894061928 0.0630932
-7.98018147909 0.0411849
-7.48142207997 0.0343886
-6.98266242188 0.0244136
-6.4839025048 0.0115878
-5.98514232868 0.0236924
-5.48638189351 0.0260438
-4.98762119925 0.0151332
-4.48886024587 0.0102845
-3.99009903334 0.00168696
-3.49133756162 0
-2.9925758307 0.00984654
-2.49381384053 0.0226562
-1.99505159109 0.0343383
-1.49628908235 0.042804
-0.997526314276 0.0459167
-0.498763286835 0.0498454
0 0.0529063
0.498763546261 0.049531
0.997527351978 0.0387226
1.49629141718 0.0168334
1.9950557419 0.0199668
2.49382032617 0.0121139
2.99258517002 0.014843
3.49135027347 0.0211535
3.99011563657 0.021538
4.48888125933 0.0224345
4.98764714179 0.0187571
5.48641328399 0.0204765
5.98517968594 0.0449967
6.48394634769 0.0798973
6.98271326926 0.127702
7.48148045068 0.193882
7.98024789199 0.290744
8.4790155932 0.273822
8.97778355437 0.331268
9.4765517755 0.543359
9.97532025664 0.776042
10.4740889978 0.912705
10.9728579991 1.00161
11.4716272604 1.01799
11.9703967819 1.04582
12.4691665635 1.05473
12.9679366053 1.02634
13.4667069073 1.00435
13.9654774696 1.00448
14.4642482921 1.04293
14.963019375 1.06941
15.4617907182 1.06053
15.9605623218 1.0223
16.4593341857 1.01775
16.9581063101 1.04126
17.456878695 1.07722
17.9556513403 1.13877
18.4544242462 1.16844
18.9531974126 1.12837
19.4519708396 1.07974
19.9507445272 1.03996
20.4495184755 1.04667
20.9482926844 1.04801
21.447067154 1.04356
21.9458418844 1.03664
22.4446168755 1.03432
22.9433921274 1.0272
23.4421676402 1.02591
23.9409434138 1.01897
24.4397194483 1.01256
24.9384957437 1.00888
