-24.9297804444 0.917331
-24.4311914609 0.896425
-23.9326022076 0.900732
-23.4340126844 0.931255
-22.9354228912 0.943537
-22.4368328281 0.959285
-21.9382424949 0.967744
-21.4396518917 0.983511
-20.9410610184 0.997457
-20.442469875 1.00631
-19.9438784615 0.994847
-19.4452867778 0.974635
-18.9466948238 0.956492
-18.4481025996 0.947733
-17.9495101051 0.927494
-17.4509173403 0.892323
-16.9523243052 0.855262
-16.4537309996 0.812089
-15.9551374237 0.788017
-15.4565435772 0.715483
-14.9579494603 0.667405
-14.4593550728 0.588811
-13.9607604148 0.531642
-13.4621654862 0.461268
-12.9635702869 0.381904
-12.464974817 0.357684
-11.9663790763 0.325155
-11.467783065 0.291921
-10.9691867828 0.27382
-10.4705902299 0.266707
-9.97199340607 0.24366
-9.4733963114 0.220917
-8.97479894581 0.219032
-8.47620130928 0.213559
-7.97760340177 0.187186
-7.47900522325 0.152083
-6.98040677367 0.115732
-6.48180805301 0.0928538
-5.98320906123 0.0867377
-5.4846097983 0.0801974
-4.98601026417 0.0705212
-4.48741045883 0.0548645
-3.98881038223 0.0216506
-3.49021003433 0.00843042
-2.99160941511 0.00396409
-2.49300852453 0.00987348
-1.99440736255 0.0190492
-1.49580592915 0.00760597
-0.997204224275 0
-0.498602247904 0.0118026
0 0.0169096
0.498602519473 0.0160368
0.997205310548 0.013978
1.49580837326 0.0658292
1.99441170764 0.174075
2.49301531373 0.284492
2.99161919157 0.325538
3.49022334117 0.304346
3.98882776259 0.27093
4.48743245585 0.232134
4.98603742098 0.190307
5.48464265803 0.15158
5.98324816703 0.125578
6.48185394801 0.110544
6.98046000101 0.0990886
7.47906632605 0.0900906
7.97767292318 0.0813269
8.47627979243 0.0981963
8.97488693384 0.104256
9.47349434743 0.0974365
9.97210203324 0.11386
10.4707099913 0.14112
10.9693182217 0.209978
11.4679267244 0.293638
11.9665354994 0.40679
12.4651445469 0.505467
12.9637538667 0.559101
13.4623634591 0.565725
13.9609733239 0.562511
14.4595834612 0.561503
14.9581938712 0.641821
15.4568045537 0.744943
15.9554155089 0.81449
16.4540267367 0.854726
16.9526382372 0.870333
17.4512500105 0.864751
17.9498620565 0.879246
18.4484743754 0.907605
18.9470869671 1.03402
19.4456998316 1.1194
19.9443129691 1.10725
20.4429263795 1.08803
20.9415400629 1.07586
21.4401540193 1.032
21.9387682488 0.967989
22.4373827513 0.960315
22.9359975269 0.961418
23.4346125757 0.961715
23.9332278977 0.977303
24.4318434929 0.976724
24.9304593613 0.975257
