-24.9295751143 0.757158
-24.4309902581 0.773912
-23.9324051313 0.737041
-23.4338197336 0.761396
-22.9352340652 0.795196
-22.436648126 0.859053
-21.9380619159 0.910502
-21.4394754349 0.949656
-20.9408886831 0.930893
-20.4423016602 0.91041
-19.9437143664 0.887668
-19.4451268015 0.872305
-18.9465389656 0.900245
-18.4479508586 0.920068
-17.9493624804 0.935954
-17.4507738311 0.977172
-16.9521849106 1.01933
-16.4535957188 1.06582
-15.9550062558 1.08433
-15.4564165214 1.08631
-14.9578265158 1.11123
-14.4592362387 1.13483
-13.9606456903 1.0872
-13.4620548704 1.01741
-12.963463779 0.983929
-12.4648724161 0.944157
-11.9662807816 0.877366
-11.4676888756 0.818839
-10.969096698 0.795152
-10.4705042487 0.765325
-9.97191152767 0.724014
-9.47331853496 0.679721
-8.97472527049 0.61213
-8.47613173423 0.538029
-7.97753792615 0.504291
-7.4789438462 0.488279
-6.98034949435 0.451343
-6.48175487058 0.451822
-5.98315997484 0.458448
-5.48456480709 0.436378
-4.98596936732 0.423604
-4.48737365547 0.394203
-3.98877767152 0.389152
-3.49018141543 0.426902
-2.99158488717 0.42336
-2.49298808669 0.38473
-1.99439101398 0.367746
-1.49579366899 0.370977
-0.997196051684 0.419257
-0.498598162032 0.462565
0 0.390023
0.498598434448 0.312003
0.997197141347 0.268513
1.49579612073 0.211961
1.99439537263 0.118721
2.49299489709 0.0436828
2.99159469414 0.000590122
3.49019476381 0
3.98879510614 0.0497065
4.48739572116 0.144276
4.98599660891 0.247724
5.48459776942 0.336653
5.98319920272 0.476148
6.48180090886 0.637956
6.98040288786 0.705393
7.47900513976 0.747883
7.9776076646 0.790771
8.4762104624 0.861109
8.97481353321 0.97077
9.47341687706 1.08638
9.97202049398 1.11459
10.470624384 1.09287
10.9692285472 1.09145
11.4678329835 1.09186
11.9664376931 1.08968
12.4650426759 1.08254
12.9636479319 1.13
13.4622534613 1.22429
13.9608592641 1.31208
14.4594653402 1.37955
14.9580716897 1.40741
15.4566783127 1.40563
15.9552852092 1.3862
16.4538923792 1.37562
16.9524998227 1.37202
17.4511075398 1.38084
17.9497155306 1.35325
18.448323795 1.32259
18.9469323331 1.28836
19.4455411449 1.25643
19.9441502305 1.23269
20.4427595899 1.20606
20.9413692231 1.16077
21.4399791302 1.12771
21.9385893112 1.11815
22.4371997661 1.12441
22.935810495 1.10893
23.4344214978 1.06002
23.9330327747 1.01621
24.4316443257 0.958043
24.9302561508 0.940662
