-24.9407395198 0.844747
-24.4419309426 0.837008
-23.9431221124 0.827866
-23.4443130289 0.812796
-22.9455036923 0.793087
-22.4466941024 0.76262
-21.9478842593 0.723633
-21.449074163 0.712067
-20.9502638133 0.692177
-20.4514532103 0.671546
-19.9526423539 0.642162
-19.4538312441 0.615097
-18.9550198808 0.581642
-18.4562082642 0.570912
-17.957396394 0.555096
-17.4585842703 0.555826
-16.9597718931 0.54308
-16.4609592623 0.517362
-15.9621463779 0.517936
-15.4633332399 0.519402
-14.9645198482 0.503465
-14.4657062028 0.449834
-13.9668923037 0.417605
-13.4680781509 0.373916
-12.9692637443 0.333808
-12.4704490838 0.295667
-11.9716341696 0.292342
-11.4728190014 0.306732
-10.9740035794 0.313621
-10.4751879035 0.295364
-9.97637197354 0.277041
-9.47755578965 0.271385
-8.97873935175 0.26751
-8.4799226598 0.242576
-7.98110571378 0.198548
-7.48228851366 0.171807
-6.98347105941 0.138895
-6.484653351 0.118133
-5.98583538841 0.0785017
-5.4870171716 0.0822773
-4.98819870054 0.0710506
-4.48937997521 0.0598254
-3.99056099557 0.0540612
-3.4917417616 0.100965
-2.99292227326 0.107808
-2.49410253054 0.118943
-1.99528253339 0.0887492
-1.49646228179 0.0229215
-0.997641775711 0.0105188
-0.498821015124 0
0 0.0344445
0.498821269692 0.0391959
0.997642793979 0.0443055
1.49646457289 0.0426806
1.99528660646 0.0422961
2.49410889471 0.0332064
2.99293143767 0.0256762
3.49175423538 0.0205152
3.99057728785 0.0313832
4.48940059513 0.0941263
4.98822415723 0.150525
5.48704797419 0.129906
5.98587204604 0.0963956
6.48469637281 0.0977556
6.98352095452 0.1056
7.4823457912 0.0814119
7.98117088289 0.054564
8.4799962296 0.0318251
8.97882183138 0.0189414
9.47764768825 0.0275407
9.97647380024 0.0436464
10.4753001674 0.0619412
10.9741267897 0.120722
11.4729536672 0.209766
11.9717808 0.28901
12.470608188 0.359744
12.9694358313 0.426607
13.4682637299 0.48439
13.9670918839 0.539645
14.4659202933 0.564845
14.9647489581 0.571431
15.4635778783 0.613684
15.962407054 0.664915
16.4612364851 0.709634
16.9600661718 0.763284
17.4588961141 0.80875
17.9577263119 0.838664
18.4565567654 0.865462
18.9553874745 0.892008
19.4542184392 0.911573
19.9530496597 0.958104
20.4518811358 1.02956
20.9507128678 1.07233
21.4495448555 1.08096
21.948377099 1.06597
22.4472095984 1.04508
22.9460423537 1.03613
23.4448753648 1.03035
23.9437086319 1.0021
24.4425421549 0.949299
24.9413759339 0.920722
