-24.9295074254 0.837833
-24.4309239045 0.841154
-23.9323401136 0.844813
-23.4337560527 0.84605
-22.9351717218 0.838884
-22.4365871209 0.829033
-21.9380022498 0.829143
-21.4394171086 0.831213
-20.9408316973 0.820433
-20.4422460157 0.813268
-19.9436600639 0.815263
-19.4450738419 0.821446
-18.9464873495 0.817041
-18.4479005868 0.815798
-17.9493135537 0.811366
-17.4507262502 0.815321
-16.9521386763 0.828748
-16.4535508319 0.835227
-15.954962717 0.823806
-15.4563743315 0.808573
-14.9577856754 0.790989
-14.4591967488 0.762231
-13.9606075514 0.740033
-13.4620180834 0.709347
-12.9634283447 0.669363
-12.4648383352 0.625543
-11.9662480549 0.603635
-11.4676575038 0.577662
-10.9690666818 0.534332
-10.470475589 0.518551
-9.97188422515 0.507054
-9.47329259038 0.470188
-8.97470068461 0.431762
-8.47610850781 0.391719
-7.97751605993 0.354766
-7.47892334095 0.311528
-6.98033035083 0.24327
-6.48173708953 0.177773
-5.98314355703 0.136785
-5.48454975328 0.102752
-4.98595567825 0.0716899
-4.48736133191 0.0414575
-3.98876671422 0.0291359
-3.49017182514 0.027178
-2.99157666465 0.0258959
-2.49298123271 0.018564
-1.99438552928 0.0218594
-1.49578955433 0.0246465
-0.997193307822 0
-0.498596789724 0.0142993
0 0.00999361
0.498597061384 0.00568459
0.997194394463 0.00347573
1.49579199927 0.00398655
1.99438987584 0.0113246
2.49298802422 0.0197907
2.99158644442 0.03123
3.49018513649 0.0480967
3.98878410047 0.0833775
4.48738333638 0.123801
4.98598284426 0.153751
5.48458262415 0.195939
5.98318267608 0.273449
6.48178300009 0.345027
6.9803835962 0.389551
7.47898446446 0.427803
7.9775856049 0.466484
8.47618701755 0.509967
8.97478870245 0.55864
9.47339065964 0.597527
9.97199288914 0.64107
10.470595391 0.696318
10.9691981652 0.761986
11.4678012119 0.810447
11.966404531 0.854258
12.4650081226 0.890291
12.9636119867 0.887145
13.4622161234 0.899127
13.9608205327 0.934751
14.4594252146 0.935718
14.9580301692 0.904102
15.4566353964 0.915207
15.9552408964 0.918232
16.4538466692 0.901263
16.9524527147 0.88474
17.4510590331 0.877681
17.9496656244 0.913197
18.4482724885 0.934794
18.9468796256 0.957316
19.4454870357 0.976753
19.9440947188 1.03929
20.4427026749 1.0926
20.9413109041 1.13446
21.4399194064 1.14837
21.9385281818 1.14128
22.4371372305 1.12046
22.9357465523 1.09146
23.4343561474 1.06432
23.9329660157 1.03708
24.4315761574 1.01276
24.9301865724 0.993998
