-24.9378210302 0.331404
-24.4390709367 0.32557
-23.9403205853 0.321517
-23.4415699762 0.325049
-22.9428191093 0.326979
-22.4440679846 0.329401
-21.9453166019 0.333347
-21.4465649614 0.337627
-20.9478130629 0.341299
-20.4490609065 0.345287
-19.950308492 0.349098
-19.4515558195 0.352467
-18.952802889 0.353442
-18.4540497003 0.35431
-17.9552962535 0.357308
-17.4565425486 0.359423
-16.9577885855 0.36204
-16.4590343642 0.365551
-15.9602798846 0.37091
-15.4615251468 0.389998
-14.9627701506 0.427742
-14.4640148961 0.47112
-13.9652593832 0.555048
-13.466503612 0.642536
-12.9677475823 0.681714
-12.4689912941 0.663962
-11.9702347475 0.654209
-11.4714779423 0.5941
-10.9727208785 0.530986
-10.4739635562 0.519918
-9.97520597528 0.498645
-9.4764481357 0.420245
-8.97769003744 0.334986
-8.47893168047 0.286671
-7.98017306476 0.254103
-7.48141419029 0.251349
-6.98265505701 0.255564
-6.4838956649 0.292457
-5.98513601394 0.331744
-5.48637610408 0.344538
-4.98761593529 0.352228
-4.48885550756 0.337184
-3.99009482084 0.296192
-3.49133387511 0.246185
-2.99257267033 0.171353
-2.49381120647 0.0706095
-1.99504948351 0.0222198
-1.49628750142 0.00630081
-0.997525260153 0.0163491
-0.498762759691 0.0191993
0 0.00654889
0.498763018949 0
0.997526297187 0.00095837
1.49628983475 0.00704204
1.99505363166 0.0189084
2.49381768795 0.0178682
2.99258200365 0.0145626
3.4913465788 0.0131105
3.99011141341 0.0136844
4.48887650753 0.0142087
4.98764186119 0.0208109
5.48640747441 0.0476769
5.98517334722 0.117062
6.48393947966 0.204922
6.98270587175 0.264063
7.48147252353 0.313867
7.98023943503 0.443773
8.47900660627 0.559727
8.97777403729 0.623417
9.47654172812 0.76108
9.97530967879 0.785545
10.4740778893 0.942504
10.9728463598 1.13079
11.4716150901 1.22941
11.9703840805 1.33663
12.4691533308 1.36561
12.9679228411 1.37333
13.4666926115 1.38746
13.965462642 1.4072
14.4642329325 1.35788
14.9630034833 1.1983
15.4617742942 1.10934
15.9605453653 1.05306
16.4593166966 1.0634
16.9580882882 1.12558
17.4568601401 1.13171
17.9556322523 1.08259
18.4544046249 1.0707
18.9531772578 1.06175
19.4519501512 1.00415
19.950723305 0.930762
20.4494967193 0.915127
20.9482703941 0.90928
21.4470443294 0.895747
21.9458185253 0.896684
22.4445929818 0.906891
22.943367699 0.912335
23.4421426768 0.909998
23.9409179152 0.904823
24.4396934144 0.906177
24.9384691744 0.899349
