-24.9332205285 0.858595
-24.4345626208 0.837604
-23.9359044482 0.8167
-23.4372460107 0.803157
-22.9385873082 0.793324
-22.4399283407 0.779535
-21.9412691082 0.769779
-21.4426096107 0.769533
-20.943949848 0.78112
-20.4452898203 0.778846
-19.9466295273 0.766494
-19.4479689692 0.755334
-18.9493081458 0.750703
-18.4506470572 0.766435
-17.9519857033 0.747286
-17.4533240841 0.725876
-16.9546621995 0.708566
-16.4560000495 0.704896
-15.9573376341 0.712545
-15.4586749532 0.704407
-14.9600120069 0.686342
-14.461348795 0.658999
-13.9626853176 0.646367
-13.4640215745 0.629544
-12.9653575659 0.607528
-12.4666932916 0.576901
-11.9680287516 0.559889
-11.4693639459 0.530457
-10.9706988745 0.496527
-10.4720335372 0.448543
-9.97336793415 0.431364
-9.47470206523 0.409723
-8.97603593042 0.409714
-8.4773695297 0.385734
-7.97870286303 0.35125
-7.48003593037 0.363129
-6.98136873169 0.412814
-6.48270126697 0.460764
-5.98403353616 0.467342
-5.48536553923 0.46352
-4.98669727616 0.456527
-4.4880287469 0.442153
-3.98935995143 0.428768
-3.49069088972 0.416723
-2.99202156172 0.346336
-2.49335196741 0.297614
-1.99468210675 0.21025
-1.49601197971 0.233247
-0.997341586263 0.197865
-0.49867092637 0.159454
0 0.134469
0.49867119288 0.121366
0.997342652304 0.0992134
1.4960143783 0.0600862
1.99468637091 0.0193704
2.49335863016 0
2.99203115608 0.0160893
3.49070394871 0.0486539
3.98937700808 0.0736189
4.48805033423 0.104429
4.98672392717 0.154833
5.48539778696 0.231864
5.98407191362 0.375837
6.48274630717 0.577627
6.98142096767 0.758882
7.48009589514 0.916314
7.9787710896 0.932542
8.4774465511 1.06548
8.97612227967 1.14168
9.47479827534 1.12203
9.97347453814 1.11655
10.4721510681 1.11463
10.9708278653 1.08952
11.4695049297 1.06422
11.9681822613 1.05818
12.4668598603 1.04351
12.9655377266 1.03674
13.4642158602 1.05416
13.9628942612 1.0942
14.4615729297 1.10254
14.9602518656 1.10704
15.458931069 1.10286
15.95761054 1.10679
16.4562902785 1.07365
16.9549702845 1.05512
17.4536505582 1.04227
17.9523310996 0.991162
18.4510119087 0.945282
18.9496929854 0.904634
19.4483743299 0.863472
19.9470559422 0.808211
20.4457378224 0.752952
20.9444199703 0.730375
21.4431023862 0.728343
21.94178507 0.716255
22.4404680217 0.711152
22.9391512414 0.704897
23.4378347291 0.718812
23.9365184848 0.746203
24.4352025087 0.751021
24.9338868006 0.747175
