-24.9302034734 0.687612
-24.4316060133 0.719214
-23.9330082839 0.751823
-23.4344102853 0.793642
-22.9358120174 0.816191
-22.4372134802 0.830608
-21.9386146736 0.84376
-21.4400155976 0.845552
-20.9414162522 0.845174
-20.4428166374 0.844947
-19.9442167531 0.848223
-19.4456165992 0.854636
-18.9470161758 0.854804
-18.4484154828 0.853256
-17.9498145201 0.86108
-17.4512132878 0.883442
-16.9526117858 0.949615
-16.454010014 1.02312
-15.9554079725 1.06395
-15.4568056612 1.02362
-14.95820308 0.9882
-14.459600229 0.9509
-13.9609971081 0.925614
-13.4623937172 0.936828
-12.9637900563 1.00502
-12.4651861255 1.02263
-11.9665819246 1.02993
-11.4679774536 1.03216
-10.9693727125 1.02587
-10.4707677012 0.995284
-9.97216241981 0.94952
-9.47355686817 0.876701
-8.97495104627 0.799962
-8.47634495409 0.738139
-7.97773859159 0.689439
-7.47913195873 0.649821
-6.98052505548 0.594871
-6.48191788182 0.543938
-5.98331043769 0.526484
-5.48470272307 0.518679
-4.98609473793 0.518214
-4.48748648223 0.513172
-3.98887795593 0.511221
-3.490269159 0.497257
-2.99166009141 0.485267
-2.49305075312 0.464512
-1.9944411441 0.435738
-1.49583126431 0.345174
-0.997221113718 0.202789
-0.498610692294 0.104545
0 0.0579234
0.498610963197 0.032605
0.997222197333 0.0181139
1.49583370244 0.00357841
1.99444547856 0
2.49305752571 0.00960772
2.99166984394 0.0173706
3.49028243328 0.00510222
3.98889529377 0.0887817
4.48750842543 0.371783
4.9861218283 0.663234
5.48473550242 0.959355
5.98334944782 1.1993
6.48196366454 1.37496
6.9805781526 1.47054
7.47919291205 1.51899
7.97780794291 1.59958
8.47642324523 1.65682
8.97503881903 1.65085
9.47365466435 1.6368
9.97227078123 1.62661
10.4708871697 1.63552
10.9695038298 1.65982
11.4681207615 1.67874
11.966737965 1.67649
12.4653554401 1.61387
12.963973187 1.55113
13.4625912057 1.48781
13.9612094963 1.4338
14.4598280587 1.39858
14.958446893 1.3643
15.4570659992 1.31596
15.9556853774 1.26869
16.4543050276 1.25797
16.9529249498 1.25324
17.4515451441 1.23331
17.9501656105 1.21608
18.448786349 1.17998
18.9474073597 1.13329
19.4460286426 1.10191
19.9446501977 1.08545
20.4432720251 1.07899
20.9418941248 1.09727
21.4405164968 1.11118
21.9391391412 1.10082
22.437762058 1.07999
22.9363852473 1.07009
23.435008709 1.0787
23.9336324432 1.0948
24.43225645 1.09831
24.9308807294 1.0999
