-24.9294783984 1.19334
-24.4308954691 1.19517
-23.9323122695 1.19481
-23.4337287993 1.19476
-22.9351450587 1.18684
-22.4365610476 1.19013
-21.9379767659 1.19207
-21.4393922137 1.20425
-20.9408073908 1.20072
-20.4422222973 1.20498
-19.9436369331 1.19513
-19.4450512981 1.16427
-18.9464653924 1.14121
-18.4478792159 1.11856
-17.9492927686 1.08833
-17.4507060504 1.05522
-16.9521190614 1.02969
-16.4535318014 1.01296
-15.9549442704 0.988937
-15.4563564684 0.936831
-14.9577683954 0.869049
-14.4591800513 0.805755
-13.9605914361 0.761251
-13.4620025498 0.75396
-12.9634133923 0.748199
-12.4648239635 0.727125
-11.9662342636 0.70798
-11.4676442923 0.698054
-10.9690540497 0.702848
-10.4704635358 0.718447
-9.97187275052 0.679975
-9.4732816938 0.634751
-8.97469036562 0.61603
-8.47609876595 0.622059
-7.97750689476 0.600344
-7.478914752 0.58484
-6.98032233766 0.551791
-6.48172965168 0.562387
-5.98313669404 0.558481
-5.48454346471 0.475482
-4.98594996364 0.333688
-4.4873561908 0.157616
-3.98876214616 0.0883458
-3.49016782969 0.0833879
-2.99157324134 0.0732826
-2.49297838108 0.0629002
-1.99438324889 0.0533117
-1.49578784472 0.0456891
-0.997192168534 0.0483916
-0.498596220307 0.0498928
0 0.0435369
0.498596492421 0.0277484
0.997193256991 0.0651188
1.49579029375 0.145238
1.99438760272 0.194889
2.49298518394 0.229209
2.99158303746 0.213608
3.49018116329 0.163586
3.98877956148 0.118525
4.48737823206 0.0680944
4.98597717507 0.0519602
5.48457639054 0.0347093
5.98317587851 0.036017
6.481775639 0.0271632
6.98037567206 0.00852221
7.47897597772 0
7.97757655601 0.0684806
8.47617740697 0.197259
8.97477853063 0.421155
9.47337992703 0.668446
9.9719815962 0.84171
10.4705835382 0.978485
10.969185753 1.11766
11.4677882407 1.24671
11.9663910013 1.35402
12.4649940348 1.4179
12.9635973414 1.47238
13.4622009209 1.50904
13.9608047735 1.55723
14.4594088991 1.58972
14.9580132979 1.62066
15.4566179699 1.64914
15.955222915 1.66092
16.4538281333 1.66332
16.9524336249 1.64046
17.4510393898 1.60963
17.949645428 1.56375
18.4482517395 1.50961
18.9468583245 1.45628
19.4454651829 1.41819
19.9440723147 1.39377
20.4426797201 1.37867
20.9412873989 1.36921
21.4398953513 1.3573
21.9385035774 1.35971
22.437112077 1.4032
22.9357208504 1.47979
23.4343298974 1.51331
23.9329392181 1.50975
24.4315488127 1.50716
24.930158681 1.51319
