-24.9331695803 1.02536
-24.4345126834 1.00707
-23.9358555219 1.01444
-23.4371980958 1.05347
-22.9385404051 1.03887
-22.4398824497 1.01564
-21.9412242297 1.02277
-21.4425657449 1.03669
-20.9439069954 1.08003
-20.445247981 1.10009
-19.9465887019 1.12239
-19.4479291579 1.14176
-18.949269349 1.16653
-18.4506092751 1.14574
-17.9519489363 1.13579
-17.4532883326 1.10816
-16.9546274638 1.1065
-16.4559663299 1.10963
-15.957304931 1.10883
-15.4586432669 1.1091
-14.9599813377 1.06479
-14.4613191433 0.988438
-13.9626566836 0.920686
-13.4639939587 0.863299
-12.9653309686 0.807982
-12.4666677131 0.779603
-11.9680041922 0.744923
-11.469340406 0.728397
-10.9706763543 0.71694
-10.4720120372 0.71103
-9.97334745461 0.709143
-9.4746826065 0.711299
-8.97601749283 0.703741
-8.47735211358 0.68682
-7.97868646871 0.670863
-7.48002055819 0.652778
-6.98135438199 0.626812
-6.48268794008 0.605771
-5.98402123241 0.595063
-5.48535425896 0.565504
-4.9866870197 0.5215
-4.48801951459 0.49297
-3.98935174359 0.4762
-3.49068370669 0.470818
-2.99201540383 0.467564
-2.493346835 0.527148
-1.99467800016 0.545757
-1.49600889927 0.530551
-0.997339532301 0.469433
-0.498669899222 0.402061
0 0.319395
0.4986701654 0.236734
0.997340597008 0.172666
1.49601129486 0.100186
1.99468225898 0.0352235
2.49335348942 0.00690064
2.99202498619 0
3.49069674934 0.0214039
3.98936877889 0.0853333
4.48804107489 0.211608
4.98671363735 0.380405
5.48538646632 0.571077
5.98405956183 0.722779
6.48273292391 0.834629
6.98140655259 0.93292
7.4800804479 0.985316
7.97875460989 1.01031
8.47742903857 1.04751
8.97610373399 1.05725
9.47477869618 1.06522
9.97345392516 1.05431
10.472129421 1.04929
10.9708051837 1.04608
11.4694812132 1.04191
11.9681575097 1.03902
12.4668340732 1.0218
12.9655109037 1.00321
13.4641880012 0.966926
13.9628653657 0.937594
14.4615429974 0.919489
14.9602208962 0.911822
15.4588990621 0.917309
15.9575774952 0.922596
16.4562561956 0.894159
16.9549351632 0.886719
17.4536143981 0.885002
17.9522939003 0.882622
18.4509736699 0.868834
18.9496537068 0.850461
19.4483340112 0.821458
19.947014583 0.797135
20.4456954224 0.789717
20.9443765292 0.796215
21.4430579036 0.811176
21.9417395455 0.824861
22.4404214551 0.830015
22.9391036324 0.868531
23.4377860773 0.906448
23.9364687899 0.955786
24.4351517703 1.00211
24.9338350184 1.04673
