-24.9338398656 1.18697
-24.4351695528 1.15169
-23.9364989759 1.0942
-23.4378281348 1.08291
-22.9391570295 1.12606
-22.4404856599 1.15876
-21.941814026 1.17713
-21.4431421279 1.18088
-20.9444699654 1.11532
-20.4457975385 1.01008
-19.9471248471 0.926848
-19.4484518914 0.852803
-18.9497786711 0.716156
-18.4511051864 0.631542
-17.9524314371 0.659165
-17.4537574232 0.703368
-16.9550831447 0.732442
-16.4564086016 0.746606
-15.9577337938 0.755613
-15.4590587213 0.74923
-14.9603833841 0.712324
-14.461707782 0.655965
-13.9630319152 0.626777
-13.4643557835 0.6496
-12.965679387 0.646493
-12.4670027255 0.595355
-11.9683257992 0.593748
-11.4696486078 0.616941
-10.9709711515 0.590152
-10.4722934301 0.528018
-9.97361544361 0.44997
-9.47493719205 0.392826
-8.97625867536 0.369216
-8.4775798935 0.35557
-7.97890084644 0.346659
-7.48022153416 0.334837
-6.98154195661 0.340301
-6.48286211376 0.371312
-5.98418200559 0.355737
-5.48550163205 0.33054
-4.98682099312 0.305035
-4.48814008877 0.278026
-3.98945891895 0.255655
-3.49077748364 0.23863
-2.99209578281 0.219507
-2.49341381643 0.195263
-1.99473158445 0.196875
-1.49604908685 0.195729
-0.997366323598 0.179178
-0.498683294659 0.129801
0 0.0857969
0.498683560411 0.0713943
0.997367386605 0.0541409
1.49605147862 0.0126348
1.99473583648 0
2.49342046022 0.044489
2.99210534988 0.0820967
3.49079050548 0.0998411
3.98947592707 0.204822
4.48816161466 0.401
4.9868475683 0.582947
5.48553378801 0.737494
5.98422027384 0.867315
6.48290702581 1.01035
6.98159404395 1.17379
7.48028132829 1.1995
7.97896887888 1.2514
8.47765669573 1.30164
8.97634477889 1.32503
9.47503312839 1.27991
9.97372174425 1.2093
10.4724106265 1.151
10.9710997752 1.10132
11.4697891904 1.06917
11.968478872 1.04534
12.4671688202 1.09363
12.965859035 1.09793
13.4645495163 1.07359
13.9632402643 1.02837
14.4619312789 1.01624
14.9606225603 1.0633
15.4593141083 1.08302
15.9580059231 1.11565
16.4566980047 1.1561
16.9553903531 1.17687
17.4540829684 1.17527
17.9527758506 1.17676
18.4514689996 1.1711
18.9501624157 1.15738
19.4488560987 1.08286
19.9475500487 0.993341
20.4462442658 0.996862
20.9449387499 0.993797
21.4436335012 1.02103
21.9423285196 1.03781
22.4410238052 1.05177
22.9397193579 1.1049
23.438415178 1.18125
23.9371112653 1.24485
24.4358076199 1.27825
24.9345042418 1.26156
