-24.9332148812 0.782198
-24.4345570856 0.763499
-23.935899025 0.747128
-23.4372406996 0.731236
-22.9385821093 0.719636
-22.439923254 0.715342
-21.9412641337 0.711358
-21.4426047484 0.706829
-20.9439450981 0.71418
-20.4452851826 0.722356
-19.9466250021 0.728319
-19.4479645564 0.725064
-18.9493038454 0.734847
-18.4506428693 0.734854
-17.9519816279 0.734181
-17.4533201212 0.719713
-16.9546583493 0.687764
-16.4559963119 0.660306
-15.9573340092 0.651374
-15.458671441 0.656296
-14.9600086074 0.662639
-14.4613455083 0.65563
-13.9626821437 0.65571
-13.4640185135 0.685823
-12.9653546178 0.718959
-12.4666904564 0.739368
-11.9680260294 0.747187
-11.4693613367 0.69699
-10.9706963783 0.662445
-10.4720311541 0.642515
-9.97336566413 0.619059
-9.47469990836 0.592573
-8.97603388674 0.557657
-8.47736759924 0.504814
-7.97870104583 0.472492
-7.48003422647 0.459798
-6.98136714113 0.443451
-6.48269978977 0.425972
-5.98403217237 0.436524
-5.48536428889 0.419888
-4.9866961393 0.381938
-4.48802772356 0.340508
-3.98935904165 0.319244
-3.49069009352 0.301883
-2.99202087916 0.269518
-2.49335139851 0.126149
-1.99468165156 0.0367491
-1.49601163826 0.0368932
-0.997341358595 0.0497588
-0.498670812517 0.0619118
0 0.0974863
0.498671078992 0.0608014
0.997342424489 0.0306141
1.49601403653 0.0224327
1.99468591513 0.0396093
2.49335806034 0.0612057
2.99203047219 0.0693287
3.49070315071 0.0398931
3.98937609594 0
4.48804930789 0.0248583
4.98672278662 0.0973875
5.48539653215 0.188174
5.98407054451 0.298618
6.48274482373 0.47903
6.98141936986 0.626378
7.48009418292 0.713531
7.97876926294 0.767935
8.47744460996 0.82919
8.97612022401 1.01065
9.47479610513 1.1147
9.97347225334 1.1046
10.4721486687 1.06638
10.9708253512 1.01472
11.4695023009 0.982269
11.9681795178 0.96756
12.466857002 0.964675
12.9655347534 1.00719
13.4642127722 1.00952
13.9628910584 0.993701
14.4615696119 0.93946
14.9602484329 0.919308
15.4589275213 0.901475
15.9576068772 0.882445
16.4562865006 0.858882
16.9549663916 0.821429
17.4536465502 0.791407
17.9523269763 0.7975
18.4510076702 0.808801
18.9496886317 0.801256
19.4483698609 0.778505
19.9470513579 0.753301
20.4457331226 0.733055
20.9444151552 0.722627
21.4430974556 0.702545
21.9417800239 0.672197
22.4404628601 0.645024
22.9391459643 0.637064
23.4378293364 0.652848
23.9365129765 0.667161
24.4351968847 0.669995
24.9338810609 0.666647
