-24.9297932255 0.954569
-24.4312039885 0.878569
-23.9326144815 0.808994
-23.4340247046 0.730051
-22.9354346576 0.670584
-22.4368443406 0.645274
-21.9382537535 0.636929
-21.4396628963 0.628457
-20.9410717689 0.651715
-20.4424803713 0.657413
-19.9438887034 0.647349
-19.4452967653 0.654822
-18.9467045569 0.687532
-18.4481120782 0.687228
-17.949519329 0.663401
-17.4509263095 0.624346
-16.9523330196 0.55153
-16.4537394591 0.474136
-15.9551456281 0.457282
-15.4565515266 0.427149
-14.9579571546 0.413203
-14.4593625119 0.392305
-13.9607675985 0.382553
-13.4621724145 0.438968
-12.9635769597 0.48668
-12.4649812342 0.536948
-11.9663852379 0.539267
-11.4677889708 0.522108
-10.9691924328 0.476863
-10.4705956239 0.451574
-9.97199854413 0.427629
-9.47340119336 0.423068
-8.9748035716 0.383827
-8.47620567881 0.346361
-7.97760751495 0.311123
-7.47900907999 0.285042
-6.98041037389 0.275112
-6.48181139663 0.266821
-5.98321214816 0.25404
-5.48461262845 0.243234
-4.98601283747 0.243336
-4.48741277518 0.210043
-3.98881244155 0.176312
-3.49021183654 0.146884
-2.99161096011 0.0876479
-2.49300981225 0.0451588
-1.9944083929 0.0154842
-1.49580670203 0.00486314
-0.997204739618 0
-0.498602505618 0.00762062
0 0.0284926
0.498602777271 0.05925
0.997205826231 0.0521189
1.49580914691 0.0171167
1.99441273935 0.00777285
2.49301660358 0.0117687
2.99162073964 0.0181567
3.49022514755 0.0405073
3.98882982737 0.0478404
4.48743477911 0.0610744
4.98604000281 0.0848393
5.48464549851 0.145049
5.98325126625 0.26102
6.48185730605 0.372868
6.98046361795 0.454369
7.47907020199 0.526839
7.9776770582 0.582834
8.47628418661 0.598803
8.97489158726 0.644248
9.47349926018 0.675582
9.97210720542 0.685631
10.470715423 0.693914
10.9693239129 0.734509
11.4679326753 0.794741
11.9665417101 0.828539
12.4651510174 0.737745
12.9637605972 0.723001
13.4623704495 0.718853
13.9609805745 0.657418
14.459590972 0.614374
14.9582016422 0.641551
15.4568125851 0.727216
15.9554238007 0.768871
16.4540352891 0.788076
16.9526470502 0.83174
17.4512590842 0.87353
17.949871391 0.907797
18.4484839707 0.946009
18.9470968233 1.01551
19.4457099489 1.11011
19.9443233475 1.23795
20.4429370192 1.33875
20.9415509638 1.41138
21.4401651816 1.45099
21.9387796725 1.46363
22.4373944366 1.45012
22.9360094739 1.45644
23.4346247844 1.46596
23.9332403682 1.49965
24.4318562252 1.51412
24.9304723556 1.50008
