-24.9295741517 1.08084
-24.4309893146 1.10695
-23.9324042068 1.11289
-23.4338188283 1.13236
-22.935233179 1.14893
-22.4366472589 1.17042
-21.9380610679 1.18303
-21.4394746061 1.17346
-20.9408878734 1.16858
-20.4423008697 1.14938
-19.943713595 1.13547
-19.4451260493 1.13736
-18.9465382325 1.1342
-18.4479501447 1.13541
-17.9493617857 1.0826
-17.4507731555 1.09422
-16.9521842542 1.10654
-16.4535950817 1.12006
-15.9550056378 1.10499
-15.4564159227 1.06574
-14.9578259363 1.02114
-14.4592356784 0.972401
-13.9606451492 0.964704
-13.4620543485 0.965948
-12.9634632764 0.939394
-12.4648719327 0.898416
-11.9662803176 0.853313
-11.4676884308 0.808058
-10.9690962724 0.777102
-10.4705038424 0.746969
-9.97191114069 0.708879
-9.47331816726 0.655361
-8.97472492209 0.597168
-8.47613140513 0.558841
-7.97753761635 0.545249
-7.47894355572 0.543628
-6.98034922319 0.542437
-6.48175461874 0.575101
-5.98315974233 0.617798
-5.48456459393 0.640308
-4.9859691735 0.682701
-4.48737348101 0.727325
-3.98877751642 0.77202
-3.49018127969 0.770982
-2.9915847708 0.702536
-2.49298798971 0.651161
-1.99439093638 0.649623
-1.49579361078 0.689231
-0.997196012869 0.673932
-0.498598142622 0.613337
0 0.513786
0.498598415032 0.399909
0.997197102507 0.206603
1.49579606246 0.0458168
1.99439529493 0.0275172
2.49299479994 0.0149081
2.99159457754 0
3.49019462776 0.0333613
3.98879495062 0.108385
4.48739554618 0.191321
4.98599641445 0.358273
5.48459755548 0.544275
5.9831989693 0.631876
6.48180065594 0.687547
6.98040261544 0.737875
7.47900484784 0.791066
7.97760735316 0.848131
8.47621013145 0.898908
8.97481318273 0.955973
9.47341650704 0.996479
9.97202010442 1.0305
10.4706239749 1.08553
10.9692281185 1.13735
11.4678325353 1.18691
11.9664372253 1.247
12.4650421885 1.31168
12.963647425 1.3662
13.4622529348 1.43709
13.960858718 1.51481
14.4594647745 1.57871
14.9580711044 1.60791
15.4566777078 1.61281
15.9552845846 1.62077
16.453891735 1.6168
16.9524991589 1.60314
17.4511068564 1.63097
17.9497148275 1.63216
18.4483230723 1.61297
18.9469315908 1.58847
19.4455403829 1.57339
19.9441494488 1.51803
20.4427587886 1.4516
20.9413684021 1.36919
21.4399782895 1.31637
21.9385884508 1.3069
22.437198886 1.31553
22.9358095951 1.25092
23.4344205783 1.21272
23.9330318355 1.15962
24.4316433668 1.09566
24.9302551721 1.06379
