-24.9332318128 0.673073
-24.4345736812 0.684626
-23.9359152847 0.690565
-23.4372566232 0.690491
-22.9385976966 0.687755
-22.4399385049 0.696241
-21.9412790482 0.709251
-21.4426193263 0.713914
-20.9439593393 0.718705
-20.445299087 0.727936
-19.9466385696 0.73931
-19.4479777868 0.759717
-18.9493167388 0.750463
-18.4506554254 0.754119
-17.9519938466 0.748311
-17.4533320025 0.714458
-16.9546698929 0.682329
-16.4560075179 0.629712
-15.9573448774 0.571876
-15.4586819713 0.537466
-14.9600187997 0.554216
-14.4613553624 0.545215
-13.9626916596 0.526146
-13.464027691 0.495728
-12.9653634568 0.479395
-12.4666989569 0.465552
-11.9680341912 0.446872
-11.4693691597 0.41788
-10.9707038623 0.386901
-10.4720382991 0.356547
-9.97337247006 0.361895
-9.47470637505 0.371778
-8.97604001407 0.374444
-8.47737338711 0.375486
-7.97870649412 0.372025
-7.48003933507 0.383811
-6.98137190993 0.391701
-6.48270421867 0.363234
-5.98403626125 0.338305
-5.48536803764 0.316316
-4.98669954781 0.308976
-4.48803079172 0.312162
-3.98936176934 0.32234
-3.49069248064 0.311642
-2.99202292559 0.277662
-2.49335310415 0.274884
-1.99468301629 0.277915
-1.49601266198 0.284605
-0.997342041184 0.29115
-0.498671153868 0.286357
0 0.244388
0.498671420451 0.185062
0.997343107519 0.109588
1.49601506124 0.0542018
1.99468728164 0.00983721
2.49335976875 0
2.99203252262 0.0248378
3.49070554326 0.0892446
3.98937883072 0.0868205
4.48805238502 0.0197687
4.98672620621 0.0548392
5.4854002943 0.132089
5.98407464934 0.212861
6.48274927136 0.309138
6.98142416038 0.470344
7.48009931645 0.622769
7.9787747396 0.741965
8.47745042985 0.689633
8.97612638724 0.67607
9.47480261181 0.743832
9.97347910358 0.811184
10.4721558626 0.870076
10.9708328889 0.903704
11.4695101825 0.896233
11.9681877434 0.838665
12.4668655717 0.788005
12.9655436674 0.748618
13.4642220305 0.73914
13.9629006611 0.720624
14.4615795592 0.694167
14.9602587248 0.646645
15.458938158 0.654233
15.9576178588 0.674969
16.4562978273 0.703155
16.9549780633 0.739255
17.4536585671 0.728791
17.9523393386 0.745249
18.4510203779 0.748061
18.949701685 0.75357
19.4483832599 0.713773
19.9470651026 0.678314
20.4457472133 0.633931
20.9444295918 0.617658
21.4431122383 0.616517
21.9417951529 0.569624
22.4404783354 0.553438
22.939161786 0.568732
23.4378455046 0.582255
23.9365294914 0.602722
24.4352137464 0.590793
24.9338982695 0.575474
