-24.929485262 1.54015
-24.4309021966 1.52416
-23.9323188608 1.49934
-23.4337352544 1.47951
-22.9351513775 1.46006
-22.43656723 1.44392
-21.937982812 1.42165
-21.4393981233 1.42093
-20.940813164 1.40842
-20.4422279339 1.382
-19.9436424332 1.3452
-19.4450566616 1.31538
-18.9464706193 1.29647
-18.4478843061 1.2304
-17.949297722 1.10872
-17.4507108671 1.00021
-16.9521237411 0.928916
-16.4535363443 0.849282
-15.9549486764 0.867451
-15.4563607374 0.970167
-14.9577725274 1.04779
-14.4591840462 1.00402
-13.9605952939 0.956374
-13.4620062704 0.930008
-12.9634169757 0.910629
-12.4648274097 0.879474
-11.9662375724 0.838394
-11.4676474639 0.81372
-10.9690570839 0.800855
-10.4704664325 0.769266
-9.97187550976 0.730067
-9.47328431551 0.688903
-8.97469284976 0.653317
-8.47610111247 0.608425
-7.97750910362 0.571393
-7.47891682316 0.540832
-6.98032427105 0.510301
-6.48173144728 0.467525
-5.98313835179 0.408918
-5.48454498456 0.379182
-4.98595134555 0.360085
-4.48735743473 0.34568
-3.98876325206 0.347909
-3.49016879751 0.349907
-2.99157407104 0.303687
-2.49297907261 0.247585
-1.9943838022 0.229642
-1.49578825977 0.230629
-0.997192445284 0.221118
-0.498596358705 0.193241
0 0.138814
0.498596630865 0.103474
0.997193533925 0.092256
1.49579070921 0.0659829
1.99438815677 0.0385793
2.49298587662 0.0363184
2.99158386881 0.0410673
3.49018213336 0.0138687
3.98878067032 0
4.48737947971 0.0566493
4.98597856158 0.143526
5.48457791595 0.259007
5.98317754286 0.393711
6.48177744235 0.543221
6.98037761445 0.650511
7.4789780592 0.750325
7.97757877662 0.867122
8.47617976675 0.964752
8.97478102964 1.09186
9.47338256531 1.26324
9.97198437379 1.41582
10.4705864551 1.47195
10.9691888094 1.50207
11.4677914365 1.53525
11.9663943366 1.57705
12.4649975097 1.59618
12.9636009558 1.6048
13.462204675 1.59141
13.9608086672 1.57221
14.4594129326 1.57601
14.9580174712 1.59004
15.4566222829 1.568
15.9552273679 1.52019
16.4538327262 1.38302
16.9524383577 1.17657
17.4510442626 1.06441
17.9496504409 0.932069
18.4482568925 0.766696
18.9468636176 0.679361
19.4454706162 0.694152
19.9440778882 0.690847
20.4426854338 0.666852
20.941293253 0.653429
21.4399013458 0.620899
21.9385097123 0.556241
22.4371183524 0.458341
22.9357272662 0.622828
23.4343364538 0.720253
23.9329459152 0.787322
24.4315556503 0.814817
24.9301656594 0.825074
