-24.9297877699 0.921961
-24.4311986411 0.959778
-23.9326092424 0.957259
-23.4340195738 0.851198
-22.9354296352 0.772908
-22.4368394265 0.752297
-21.9382489478 0.779214
-21.439658199 0.850017
-20.9410671801 0.875946
-20.442475891 0.793755
-19.9438843317 0.74978
-19.4452925022 0.712254
-18.9467004024 0.688166
-18.4481080323 0.732372
-17.9495153919 0.75981
-17.4509224811 0.766081
-16.9523292999 0.762152
-16.4537358482 0.755131
-15.9551421261 0.736452
-15.4565481335 0.682083
-14.9579538703 0.637169
-14.4593593365 0.601141
-13.9607645322 0.575082
-13.4621694571 0.539252
-12.9635741114 0.483174
-12.464978495 0.437405
-11.9663826079 0.391482
-11.4677864499 0.349932
-10.9691900211 0.321931
-10.4705933215 0.278369
-9.97199635096 0.242827
-9.47339910951 0.222575
-8.9748015971 0.204889
-8.47620381369 0.150306
-7.97760575925 0.0991158
-7.47900743375 0.0409363
-6.98040883715 0.00451183
-6.48180996942 0
-5.98321083051 0.00736879
-5.48461142041 0.0372383
-4.98601173907 0.0862552
-4.48741178645 0.145846
-3.98881156253 0.185961
-3.49021106727 0.188947
-2.99161030063 0.17707
-2.49300926259 0.183107
-1.9944079531 0.150616
-1.49580637213 0.115774
-0.997204519645 0.113385
-0.498602395614 0.105346
0 0.10499
0.498602667231 0.115574
0.997205606114 0.121317
1.49580881668 0.122488
1.99441229897 0.117519
2.49301605302 0.113525
2.99162007885 0.126758
3.49022437651 0.150103
3.98882894602 0.183501
4.48743378743 0.231905
4.98603890077 0.277519
5.48464428606 0.311878
5.98324994336 0.344519
6.48185587268 0.37145
6.98046207407 0.384024
7.47906854756 0.397225
7.97767529318 0.461552
8.47628231097 0.535746
8.97488960096 0.584889
9.47349716319 0.551335
9.97210499769 0.549506
10.4707131045 0.591164
10.9693214836 0.648138
11.4679301352 0.727724
11.9665390591 0.823396
12.4651482555 0.932715
12.9637577243 0.973941
13.4623674657 0.929436
13.9609774796 0.822258
14.4595877661 0.660034
14.9581983252 0.476843
15.4568091569 0.401042
15.9554202614 0.343922
16.4540316385 0.344001
16.9526432884 0.361048
17.4512552111 0.398222
17.9498674066 0.50213
18.448479875 0.617775
18.9470926162 0.758515
19.4457056304 0.921571
19.9443189175 1.06848
20.4429324777 1.18613
20.9415463108 1.17692
21.440160417 1.14554
21.9387747963 1.14195
22.4373894488 1.17758
22.9360043744 1.23893
23.4346195732 1.27734
23.9332350452 1.28837
24.4318507905 1.26486
24.9304668091 1.24841
