-24.9303749538 1.09731
-24.4317740546 1.05262
-23.9331728866 1.03302
-23.4345714497 1.00829
-22.9359697439 0.966008
-22.4373677692 0.927387
-21.9387655255 0.915616
-21.4401630128 0.902028
-20.9415602311 0.88131
-20.4429571803 0.812984
-19.9443538604 0.74786
-19.4457502713 0.707435
-18.9471464131 0.686189
-18.4485422856 0.683978
-17.9499378889 0.661638
-17.4513332229 0.609762
-16.9527282876 0.560075
-16.454123083 0.503591
-15.955517609 0.454042
-15.4569118655 0.439436
-14.9583058526 0.444937
-14.4596995703 0.467091
-13.9610930184 0.498004
-13.4624861969 0.519647
-12.9638791059 0.527624
-12.4652717452 0.523068
-11.9666641148 0.499394
-11.4680562148 0.444912
-10.9694480451 0.391315
-10.4708396056 0.359949
-9.97223089625 0.347153
-9.47362191711 0.3265
-8.9750126681 0.302928
-8.4764031492 0.313739
-7.97779336036 0.331098
-7.47918330155 0.365008
-6.98057297274 0.396631
-6.4819623739 0.388174
-5.98335150498 0.396342
-5.48474036596 0.472158
-4.9861289568 0.556449
-4.48751727747 0.636553
-3.98890532793 0.671875
-3.49029310814 0.665765
-2.99168061808 0.640935
-2.49306785771 0.564709
-1.994454827 0.408053
-1.4958415259 0.284002
-0.997227954393 0.18604
-0.498614112438 0.0914581
0 0.0522761
0.498614382953 0.00949355
0.997229036457 0.0147569
1.49584396055 0.00446404
1.99445915525 0.00409858
2.49307462061 0
2.99169035666 0.00883994
3.49030636342 0.0149736
3.98892264095 0.0136297
4.48753918926 0.0134812
4.9861560084 0.0104755
5.48477309839 0.00487025
5.98339045928 0.0176316
6.48200809109 0.104376
6.98062599386 0.20312
7.47924416762 0.277681
7.97786261242 0.356484
8.47648132827 0.452633
8.97510031523 0.560371
9.47371957331 0.72408
9.97233910256 0.791918
10.470958903 0.856417
10.9695789747 1.03884
11.4681993176 1.14834
11.9668199319 1.22529
12.4654408175 1.25912
12.9640619744 1.28605
13.4626834028 1.28699
13.9613051026 1.31453
14.4599270738 1.34082
14.9585493166 1.28782
15.4571718309 1.23735
15.9557946168 1.23462
16.4544176743 1.24426
16.9530410034 1.18901
17.4516646042 1.16369
17.9502884767 1.17505
18.448912621 1.18016
18.947537037 1.18366
19.4461617249 1.18847
19.9447866846 1.18664
20.4434119161 1.17345
20.9420374196 1.17137
21.440663195 1.14718
21.9392892425 1.1012
22.4379155619 1.03478
22.9365421534 0.991336
23.4351690169 0.992237
23.9337961526 1.00605
24.4324235604 1.00338
24.9310512404 0.985339
