-24.9331809259 0.862754
-24.4345238039 0.846383
-23.9358664173 0.833778
-23.4372087659 0.846069
-22.9385508499 0.865473
-22.4398926692 0.865074
-21.9412342237 0.829897
-21.4425755134 0.803537
-20.9439165382 0.782337
-20.4452572982 0.772416
-19.9465977933 0.78184
-19.4479380234 0.799858
-18.9492779886 0.814805
-18.4506176888 0.813684
-17.951957124 0.80788
-17.4532962941 0.82591
-16.954635199 0.853987
-16.4559738389 0.88834
-15.9573122136 0.90945
-15.4586503231 0.935475
-14.9599881674 0.938308
-14.4613257464 0.92368
-13.9626630601 0.917125
-13.4640001085 0.924489
-12.9653368915 0.917191
-12.4666734091 0.904524
-11.9680096613 0.901451
-11.4693456481 0.911115
-10.9706813693 0.90556
-10.472016825 0.883055
-9.9733520152 0.871939
-9.47468693976 0.857315
-8.9760215987 0.868659
-8.47735599198 0.880807
-7.97869011956 0.886297
-7.48002398142 0.893899
-6.98135757753 0.898048
-6.48269090784 0.91866
-5.98402397233 0.910716
-5.48535677097 0.863975
-4.98668930371 0.758863
-4.48802157053 0.672264
-3.9893535714 0.628344
-3.49068530628 0.593704
-2.99201677513 0.576387
-2.49334797794 0.547713
-1.99467891466 0.505774
-1.49600958525 0.447532
-0.997339989699 0.395664
-0.498670127958 0.352415
0 0.314744
0.49867039421 0.3095
0.997341054702 0.304246
1.49601198151 0.279819
1.99468317467 0.247263
2.49335463421 0.2211
2.99202636017 0.180275
3.49069835257 0.109301
3.98937061146 0.0452933
4.48804313685 0
4.9867159288 0.000630212
5.48538898732 0.0704676
5.98406231245 0.335022
6.48273590423 0.660388
6.98140976269 0.83756
7.48008388785 0.958359
7.97875827976 1.00481
8.47743293845 1.01613
8.97610786394 0.999318
9.47478305627 0.970995
9.97345851548 0.935734
10.4721342416 0.904308
10.9708102346 0.923097
11.4694864947 0.981986
11.9681630217 1.04245
12.4668398158 1.08754
12.9655168769 1.08637
13.4641942051 1.05517
13.9628718005 1.03548
14.461549663 1.0235
14.9602277928 1.0132
15.4589061898 0.994671
15.957584854 0.987079
16.4562637855 0.990019
16.9549429844 0.966567
17.4536224506 0.950638
17.9523021842 0.935791
18.4509821853 0.898986
18.9496624538 0.866327
19.4483429898 0.857038
19.9470237934 0.853249
20.4457048645 0.835669
20.9443862031 0.83252
21.4430678095 0.839123
21.9417496834 0.844662
22.4404318251 0.84833
22.9391142345 0.849471
23.4377969116 0.843095
23.9364798565 0.853995
24.4351630693 0.875519
24.9338465498 0.888379
