-24.9295500818 0.535462
-24.4309657151 0.527961
-23.9323810781 0.529242
-23.4337961709 0.532301
-22.9352109933 0.534806
-22.4366255454 0.538781
-21.938039827 0.544644
-21.4394538383 0.540414
-20.9408675791 0.538279
-20.4422810493 0.538769
-19.9436942491 0.53883
-19.4451071782 0.533118
-18.9465198368 0.531888
-18.4479322247 0.544614
-17.949344342 0.569646
-17.4507561885 0.594629
-16.9521677643 0.613412
-16.4535790693 0.622957
-15.9549901035 0.642169
-15.4564008669 0.643076
-14.9578113594 0.633937
-14.4592215809 0.632175
-13.9606315315 0.630251
-13.4620412111 0.625399
-12.9634506197 0.620941
-12.4648597572 0.614336
-11.9662686237 0.602706
-11.467677219 0.594557
-10.9690855431 0.58759
-10.4704935961 0.579091
-9.97190137777 0.568553
-9.47330888822 0.541786
-8.97471612737 0.512925
-8.47612309519 0.502285
-7.97752979163 0.478965
-7.47893621667 0.422739
-6.98034237026 0.361619
-6.48174825239 0.31003
-5.983153863 0.261668
-5.48455920207 0.228062
-4.98596426956 0.210277
-4.48736906544 0.236892
-3.98877358966 0.255797
-3.49017784221 0.210187
-2.99158182304 0.143592
-2.49298553212 0.119204
-1.9943889694 0.103664
-1.49579213487 0.0905913
-0.997195028484 0.0856996
-0.498597650205 0.0800462
0 0.0790485
0.498597922164 0.073732
0.997196116323 0.0576109
1.49579458251 0.0324846
1.99439332076 0.00450628
2.49299233111 0
2.9915916136 0.0156914
3.49019116825 0.0288604
3.9887909951 0.0408008
4.48739109419 0.075279
4.98599146555 0.0976739
5.48459210922 0.0846041
5.98319302522 0.104698
6.4817942136 0.194948
6.98039567439 0.312372
7.47899740763 0.431666
7.97759941334 0.521468
8.47620169157 0.608686
8.97480424234 0.699384
9.4734070657 0.816729
9.97201016167 0.982751
10.4706135303 1.14364
10.9692171716 1.28143
11.4678210856 1.36512
11.9664252724 1.441
12.465029732 1.5124
12.9636344644 1.55368
13.4622394696 1.5924
13.9608447478 1.62984
14.4594502988 1.61153
14.9580561229 1.57222
15.4566622199 1.59168
15.95526859 1.62553
16.4538752331 1.60297
16.9524821493 1.5695
17.4510893386 1.54247
17.9496968012 1.51715
18.4483045369 1.50849
18.9469125458 1.48064
19.4455208281 1.41713
19.9441293836 1.32712
20.4427382125 1.24034
20.9413473147 1.20924
21.4399566904 1.21853
21.9385663395 1.23318
22.437176262 1.25828
22.9357864581 1.28408
23.4343969277 1.29493
23.9330076709 1.28909
24.4316186878 1.26119
24.9302299782 1.19977
