-24.9301926367 0.988643
-24.4315953915 0.989188
-23.9329978771 0.989628
-23.4344000936 0.990581
-22.9358020409 1.00832
-22.4372037189 1.04433
-21.9386051277 1.04714
-21.4400062671 1.0343
-20.9414071372 1.02602
-20.4428077379 1.02013
-19.9442080692 1.00974
-19.445608131 0.999496
-18.9470079234 0.979461
-18.4484074462 0.956816
-17.9498066994 0.943007
-17.4512056831 0.936188
-16.9526043971 0.928102
-16.4540028415 0.895169
-15.9554010162 0.843388
-15.4567989211 0.791752
-14.9581965563 0.74015
-14.4595939217 0.720309
-13.9609910172 0.728063
-13.4623878429 0.67022
-12.9637843987 0.611032
-12.4651806845 0.561602
-11.9665767004 0.595232
-11.4679724462 0.6463
-10.969367922 0.676371
-10.4707631278 0.694234
-9.97215806342 0.700256
-9.47355272891 0.694056
-8.97494712422 0.683592
-8.47634124931 0.671025
-7.97773510416 0.639411
-7.47912868873 0.604915
-6.98052200298 0.525877
-6.48191504687 0.438086
-5.98330782039 0.38314
-5.48470032348 0.315444
-4.98609255612 0.25976
-4.48748451827 0.171753
-3.9888762099 0.058456
-3.49026763097 0.0450058
-2.99165878146 0.046252
-2.49304966131 0.0918966
-1.99444027051 0.162643
-1.49583060901 0.228325
-0.997220676779 0.307673
-0.498610473788 0.260329
0 0.176904
0.498610744619 0.164669
0.997221760105 0.178927
1.49583304649 0.179032
1.99444460381 0.118232
2.4930564321 0.0350288
2.99166853139 0
3.49028090172 0.0313586
3.98889354312 0.0470746
4.48750645563 0.0451728
4.98611963927 0.0387798
5.48473309409 0.0463759
5.98334682012 0.0870533
6.48196081739 0.156115
6.98057508594 0.257511
7.4791896258 0.371971
7.97780443701 0.547316
8.47641951959 0.709352
8.97503487359 0.781042
9.47365049903 0.849957
9.97226639596 0.97149
10.4708825644 1.15761
10.9694990044 1.33787
11.468115716 1.44636
11.9667326992 1.47335
12.465349954 1.46711
12.9639674806 1.45688
13.4625852788 1.44886
13.9612033488 1.41336
14.4598216906 1.25325
14.9584403043 1.15012
15.4570591897 1.11336
15.9556783471 1.21586
16.4542977764 1.15974
16.9529174777 1.12662
17.4515374509 1.15345
17.9501576962 1.18414
18.4487782136 1.20836
18.947399003 1.22179
19.4460200646 1.21898
19.9446413983 1.2038
20.4432630042 1.19286
20.9418848824 1.16947
21.4405070328 1.12854
21.9391294556 1.07496
22.4377521506 1.03164
22.9363751181 1.01323
23.4349983579 0.998536
23.9336218702 0.986644
24.4322456549 0.979129
24.9308697122 0.977257
