-24.9294823429 0.944552
-24.4308993354 0.92532
-23.9323160575 0.932578
-23.433732509 0.934401
-22.9351486901 0.923215
-22.4365646006 0.916443
-21.9379802406 0.911017
-21.4393956099 0.902061
-20.9408107086 0.8903
-20.4422255367 0.886456
-19.943640094 0.885744
-19.4450543805 0.889879
-18.9464683963 0.880949
-18.4478821413 0.85566
-17.9492956153 0.833599
-17.4507088186 0.817331
-16.9521217508 0.775615
-16.4535344122 0.728715
-15.9549468025 0.704404
-15.4563589218 0.700014
-14.95777077 0.69097
-14.4591823472 0.677248
-13.9605936532 0.638904
-13.462004688 0.62057
-12.9634154517 0.604889
-12.4648259441 0.58629
-11.9662361652 0.590857
-11.467646115 0.598601
-10.9690557935 0.605307
-10.4704652006 0.602857
-9.97187433626 0.556904
-9.4732832005 0.535467
-8.97469179326 0.537648
-8.4761001145 0.542227
-7.97750816419 0.545331
-7.4789159423 0.558901
-6.98032344878 0.582418
-6.48173068361 0.609733
-5.98313764675 0.533644
-5.48454433817 0.471716
-4.98595075783 0.453832
-4.48735690569 0.404247
-3.98876278172 0.345258
-3.49016838589 0.270705
-2.99157371817 0.194689
-2.49297877851 0.13389
-1.99438356688 0.104671
-1.49578808325 0.087655
-0.997192327582 0.0728933
-0.498596299844 0.0594758
0 0.0312353
0.498596571985 0.0125139
0.997193416146 0.00849272
1.49579053252 0.000529246
1.99438792113 0
2.49298558203 0.0227099
2.99158351524 0.0376736
3.49018172079 0.0515936
3.98878019873 0.0615027
4.48737894909 0.0530585
4.9859779719 0.041026
5.4845772672 0.0714261
5.98317683501 0.119978
6.48177667539 0.15842
6.98037678835 0.203625
7.47897717394 0.245817
7.9775778322 0.342008
8.47617876314 0.453583
8.97477996681 0.534715
9.47338144325 0.585666
9.97198319248 0.667213
10.4705852146 0.767386
10.9691875095 0.863289
11.4677900773 0.947378
11.9663929181 0.937009
12.4649960318 0.951545
12.9635994186 0.999737
13.4622030784 1.08082
13.9608070112 1.06795
14.4594112172 1.03669
14.9580156963 1.01374
15.4566204486 1.00727
15.9552254741 1.03815
16.4538307728 1.08021
16.9524363449 1.12752
17.4510421902 1.15017
17.9496483089 1.15719
18.448254701 1.15207
18.9468613664 1.13353
19.4454683054 1.1012
19.9440755178 1.055
20.4426830038 0.992532
20.9412907633 0.938275
21.4398987964 0.913733
21.9385071031 0.849418
22.4371156835 0.812212
22.9357245376 0.814013
23.4343336654 0.78008
23.9329430669 0.723298
24.4315527423 0.669046
24.9301626915 0.59387
