-24.9338216626 1.12116
-24.435151711 1.14714
-23.9364814953 1.17191
-23.4378110156 1.19213
-22.9391402718 1.17511
-22.4404692638 1.12789
-21.9417979917 1.06068
-21.4431264554 0.979035
-20.9444546549 0.916603
-20.4457825901 0.863852
-19.947110261 0.842976
-19.4484376675 0.828033
-18.9497648098 0.802125
-18.4510916876 0.744458
-17.952418301 0.69426
-17.4537446499 0.670466
-16.9550707344 0.66203
-16.4563965543 0.661813
-15.9577221097 0.66522
-15.4590474004 0.678667
-14.9603724266 0.70924
-14.4616971881 0.74431
-13.9630216849 0.737875
-13.464345917 0.732824
-12.9656698843 0.737462
-12.4669935869 0.73395
-11.9683170246 0.71909
-11.4696401975 0.708385
-10.9709631055 0.698667
-10.4722857486 0.692768
-9.97360812675 0.717433
-9.47493023991 0.694432
-8.97625208805 0.654766
-8.47757367114 0.626976
-7.97889498916 0.597385
-7.48021604206 0.562984
-6.98153682982 0.530175
-6.4828573524 0.511328
-5.98417760977 0.511636
-5.4854976019 0.524005
-4.98681732876 0.537817
-4.4881367903 0.518743
-3.98945598651 0.500292
-3.49077491734 0.46441
-2.99209358277 0.392355
-2.49341198276 0.309797
-1.99473011728 0.268875
-1.49604798629 0.291141
-0.997365589776 0.335142
-0.498682927688 0.250269
0 0.165102
0.498683193321 0.101847
0.997366652307 0.0558567
1.49605037699 0.0199825
1.99473436741 0.00167284
2.49341862359 0
2.99210314556 0.00547008
3.49078793337 0.0250546
3.98947298703 0.0418412
4.48815830659 0.0739361
4.98684389207 0.119355
5.48552974351 0.161282
5.98421586094 0.191893
6.48290224439 0.198915
6.9815888939 0.223494
7.4802758095 0.33628
7.97896299121 0.440017
8.47765043908 0.507632
8.97633815314 0.511402
9.47502613341 0.67854
9.97371437993 0.793911
10.4724028927 0.844127
10.9710916719 0.806061
11.4697807173 0.737689
11.9684700292 0.690596
12.4671596074 0.691839
12.9658494521 0.693044
13.4645395633 0.684977
13.963229941 0.73144
14.4619205852 0.794832
14.960611496 0.844562
15.4593026734 0.880708
15.9579941175 0.892421
16.4566858282 0.867213
16.9553778056 0.833201
17.4540700497 0.810012
17.9527625607 0.824171
18.4514553384 0.839947
18.9501483829 0.885193
19.4488416943 0.956136
19.9475352727 1.0107
20.4462291179 1.04278
20.9449232301 1.04401
21.4436176093 1.01578
21.9423122555 0.986822
22.4410071688 0.982562
22.9397023492 0.985594
23.4383977966 0.995195
23.9370935113 0.989418
24.4357894931 0.984303
24.9344857422 0.958278
