-24.9332430834 0.399999
-24.4345847282 0.390417
-23.935926108 0.392075
-23.4372672227 0.39624
-22.9386080723 0.413333
-22.4399486568 0.425527
-21.9412889761 0.423967
-21.4426290302 0.423215
-20.943968819 0.425581
-20.4453083426 0.43546
-19.9466476008 0.465222
-19.4479865937 0.501545
-18.9493253213 0.524994
-18.4506637834 0.503504
-17.9520019801 0.471313
-17.4533399113 0.477044
-16.954677577 0.474395
-16.4560149772 0.463468
-15.9573521118 0.450792
-15.4586889808 0.437437
-14.9600255842 0.420789
-14.4613619219 0.379949
-13.9626979939 0.354111
-13.4640338001 0.350776
-12.9653693406 0.369763
-12.4667046153 0.401185
-11.9680396241 0.395623
-11.4693743671 0.355691
-10.9707088441 0.336724
-10.4720430553 0.313688
-9.97337700045 0.211679
-9.47471067962 0.130356
-8.97604409276 0.0977437
-8.47737723983 0.074076
-7.9787101208 0.047851
-7.48004273564 0.0378128
-6.98137508431 0.0229394
-6.48270716679 0.0184599
-5.98403898303 0.0484419
-5.48537053301 0.074916
-4.9867018167 0.0905395
-4.48803283405 0.103122
-3.98936358504 0.0965967
-3.49069406964 0.132768
-2.99202428781 0.201401
-2.49335423952 0.257866
-1.99468392473 0.308893
-1.49601334342 0.306893
-0.99734249555 0.290032
-0.498671381088 0.285891
0 0.281639
0.498671647746 0.255818
0.997343562183 0.195619
1.49601574334 0.0870475
1.99468819126 0.00984449
2.49336090596 0
2.99203388749 0.00395192
3.49070713587 0.0090936
3.98938065114 0.0396569
4.48805443332 0.146283
4.98672848246 0.207526
5.48540279859 0.171202
5.98407738174 0.401023
6.48275223193 0.502016
6.98142734921 0.447986
7.4801027336 0.445805
7.97877838515 0.484751
8.47745430387 0.497441
8.97613048981 0.50605
9.474806943 0.576154
9.97348366347 0.65231
10.4721606512 0.69086
10.9708379064 0.637383
11.4695154289 0.595708
11.9681932188 0.552759
12.4668712761 0.554447
12.965549601 0.602895
13.4642281933 0.654434
13.9629070532 0.685896
14.4615861806 0.717264
14.9602655757 0.74329
15.4589452384 0.757517
15.9576251688 0.761149
16.4563053669 0.754521
16.9549858327 0.738957
17.4536665662 0.708505
17.9523475676 0.660459
18.4510288368 0.617935
18.9497103739 0.563002
19.4483921789 0.511116
19.9470742518 0.440428
20.4457565927 0.359611
20.9444392016 0.347863
21.4431220785 0.361253
21.9418052235 0.360506
22.4404886365 0.359971
22.9391723177 0.366585
23.4378562671 0.386732
23.9365404846 0.388571
24.4352249704 0.379156
24.9339097244 0.390679
