-24.9295590641 0.892462
-24.4309745193 0.875861
-23.9323897041 0.862454
-23.4338046185 0.85015
-22.9352192626 0.83612
-22.4366336363 0.821096
-21.9380477395 0.802187
-21.4394615722 0.792815
-20.9408751344 0.796417
-20.442288426 0.783384
-19.943701447 0.751483
-19.4451141974 0.72505
-18.9465266771 0.7192
-18.4479388862 0.718455
-17.9493508244 0.717156
-17.450762492 0.71199
-16.9521738887 0.683776
-16.4535850146 0.68165
-15.9549958696 0.634574
-15.4564064537 0.644513
-14.9578167668 0.610781
-14.459226809 0.575105
-13.9606365801 0.542415
-13.4620460803 0.508711
-12.9634553093 0.490117
-12.4648642672 0.472067
-11.966272954 0.462444
-11.4676813695 0.44385
-10.9690895139 0.41216
-10.470497387 0.384086
-9.97190498876 0.374198
-9.47331231923 0.363296
-8.97471937834 0.351995
-8.47612616606 0.343412
-7.97753268234 0.334683
-7.47893892716 0.321484
-6.98034490048 0.309369
-6.48175060226 0.311781
-5.98315603248 0.312819
-5.48456119109 0.310456
-4.98596607806 0.291292
-4.48737069335 0.287986
-3.98877503694 0.33723
-3.49017910879 0.387931
-2.99158290886 0.374595
-2.49298643711 0.285407
-1.99438969352 0.208643
-1.49579267805 0.172258
-0.997195390663 0.14108
-0.498597831325 0.109286
0 0.0786216
0.498598103344 0.059906
0.997196478743 0.0631577
1.49579512623 0.0660453
1.99439404584 0.0567262
2.49299323761 0.0457955
2.99159270158 0.0477081
3.49019243777 0.0427217
3.98879244622 0.0262689
4.48739272697 0.00922569
4.98599328005 0
5.4845941055 0.0127766
5.98319520334 0.0593844
6.48179657362 0.168233
6.98039821637 0.322931
7.47900013163 0.469752
7.97760231942 0.631601
8.47620477979 0.806063
8.97480751276 1.00366
9.47341051838 1.19017
9.97201379667 1.35023
10.4706173477 1.43522
10.9692211714 1.43539
11.4678252679 1.40759
11.9664296373 1.37509
12.4650342795 1.35552
12.9636391945 1.35789
13.4622443825 1.39057
13.9608498435 1.41592
14.4594555774 1.43294
14.9580615844 1.42805
15.4566678644 1.40623
15.9552744175 1.35489
16.4538812437 1.30015
16.9524883431 1.22521
17.4510957156 1.16483
17.9497033614 1.13706
18.4483112805 1.0909
18.9469194728 1.01107
19.4455279385 0.92643
19.9441366776 0.850921
20.44274569 0.789747
20.9413549759 0.721169
21.4399645352 0.648286
21.9385743681 0.604834
22.4371844745 0.6014
22.9357948544 0.624641
23.434405508 0.626876
23.9330164352 0.606057
24.4316276361 0.628815
24.9302391107 0.63806
