-24.9294774029 1.15357
-24.4308944934 1.16526
-23.9323113135 1.15476
-23.4337278631 1.11619
-22.9351441423 1.08479
-22.4365601509 1.0687
-21.937975889 1.0705
-21.4393913566 1.0773
-20.9408065535 1.08383
-20.4422214797 1.08653
-19.9436361353 1.08838
-19.4450505202 1.08388
-18.9464646343 1.0839
-18.4478784777 1.07595
-17.9492920502 1.05802
-17.4507053519 1.0415
-16.9521183826 1.00477
-16.4535311425 0.936048
-15.9549436314 0.873533
-15.4563558492 0.852272
-14.9577677961 0.853489
-14.4591794719 0.864598
-13.9605908766 0.848054
-13.4620020101 0.82617
-12.9634128725 0.80159
-12.4648234637 0.761974
-11.9662337836 0.717842
-11.4676438323 0.665032
-10.9690536097 0.620752
-10.4704631157 0.58678
-9.97187235032 0.555104
-9.47328131355 0.529525
-8.97469000532 0.471934
-8.47609842561 0.412505
-7.97750657439 0.371927
-7.47891445161 0.334677
-6.98032205724 0.293979
-6.48172939125 0.248268
-5.98313645361 0.199432
-5.48454324427 0.123127
-4.98594976321 0.0394545
-4.48735601038 0.0283647
-3.98876198576 0.0657744
-3.49016768931 0.0643935
-2.991573121 0.0444866
-2.49297828078 0.0341795
-1.99438316864 0.0337821
-1.49578778452 0.036298
-0.997192128394 0.0342148
-0.498596200234 0.0262328
0 0.0110199
0.498596472341 0.0197448
0.997193216825 0.0282778
1.49579023349 0.0263001
1.99438752236 0.0241916
2.49298508348 0.0238536
2.99158291688 0.0207751
3.49018102259 0.016415
3.98877940066 0.00727722
4.48737805111 0
4.98597697398 0.0157517
5.4845761693 0.031822
5.98317563711 0.0230604
6.48177537745 0.0384553
6.98037539034 0.127307
7.47897567583 0.297251
7.97757623394 0.578894
8.47617706471 0.855152
8.97477816818 1.00804
9.47337954438 1.01948
9.97198119334 1.07492
10.4705831151 1.17352
10.9691853097 1.27524
11.4677877772 1.36562
11.9663905175 1.43611
12.4649935308 1.4528
12.9635968171 1.49768
13.4622003764 1.53709
13.9608042087 1.56866
14.4594083141 1.58781
14.9580126926 1.6152
15.4566173443 1.65577
15.9552222691 1.69995
16.4538274672 1.73904
16.9524329385 1.76812
17.451038683 1.75559
17.9496447009 1.72253
18.4482509922 1.69026
18.9468575568 1.68294
19.4454643948 1.68109
19.9440715064 1.65042
20.4426788913 1.64201
20.9412865499 1.64718
21.4398944819 1.70388
21.9385026876 1.74608
22.4371111669 1.7441
22.9357199198 1.71912
23.4343289465 1.65389
23.9329382468 1.61402
24.431547821 1.58195
24.9301576689 1.54843
