-24.9295487829 0.686235
-24.430964442 0.66554
-23.9323798308 0.633743
-23.4337949494 0.608132
-22.9352097976 0.58641
-22.4366243754 0.578067
-21.9380386829 0.571689
-21.43945272 0.589079
-20.9408664866 0.617057
-20.4422799827 0.642556
-19.9436932083 0.672953
-19.4451061633 0.681973
-18.9465188477 0.680997
-18.4479312615 0.670983
-17.9493434046 0.645413
-17.450755277 0.626952
-16.9521668787 0.645865
-16.4535782097 0.669971
-15.9549892698 0.660633
-15.456400059 0.623254
-14.9578105774 0.604854
-14.4592208249 0.591455
-13.9606308015 0.576998
-13.462040507 0.57163
-12.9634499416 0.561026
-12.4648591051 0.528417
-11.9662679975 0.532953
-11.4676766188 0.545653
-10.9690849689 0.559197
-10.4704930479 0.533707
-9.97190085563 0.465126
-9.4733083921 0.429276
-8.97471565729 0.412778
-8.47612265114 0.406412
-7.97752937364 0.395783
-7.47893582473 0.373863
-6.9803420044 0.345321
-6.4817479126 0.319309
-5.9831535493 0.288191
-5.48455891446 0.240337
-4.98596400805 0.206807
-4.48736883004 0.189701
-3.98877338039 0.173005
-3.49017765907 0.13357
-2.99158166603 0.0936764
-2.49298540125 0.0835078
-1.9943888647 0.0791065
-1.49579205633 0.0704862
-0.997194976113 0.0628352
-0.498597624015 0.0646092
0 0.0599381
0.498597895965 0.0467067
0.997196063917 0.020625
1.49579450389 0.00405712
1.99439321592 0
2.49299220003 0.000379965
2.99159145628 0.00794781
3.49019098468 0.0209176
3.98879078527 0.0303182
4.48739085809 0.0416055
4.98599120317 0.0465001
5.48459182056 0.0437526
5.98319271027 0.071011
6.48179387235 0.205926
6.98039530683 0.365814
7.47899701374 0.538342
7.97759899313 0.609096
8.47620124502 0.598538
8.97480376944 0.675821
9.47340656644 0.839164
9.97200963605 1.03277
10.4706129783 1.14068
10.9692165932 1.19159
11.4678204809 1.1266
11.9664246413 1.14907
12.4650290744 1.17719
12.9636337804 1.18466
13.4622387592 1.18968
13.9608440109 1.18565
14.4594495356 1.18748
14.9580553331 1.21774
15.4566614037 1.22768
15.9552677473 1.22165
16.4538743639 1.21155
16.9524812537 1.20766
17.4510884165 1.21842
17.9496958526 1.21528
18.4483035618 1.15978
18.9469115442 1.0963
19.4455197999 1.06347
19.9441283289 1.06548
20.4427371312 1.09373
20.9413462069 1.13778
21.439955556 1.19378
21.9385651785 1.22849
22.4371750745 1.22407
22.935785244 1.18593
23.434395687 1.14116
23.9330064036 1.09
24.4316173939 1.02996
24.9302286577 0.968736
