-24.9295539548 0.749193
-24.4309695113 0.731679
-23.9323847975 0.714977
-23.4337998134 0.704494
-22.9352145589 0.689789
-22.436629034 0.676861
-21.9380432388 0.667113
-21.439457173 0.654292
-20.9408708368 0.644227
-20.44228423 0.63004
-19.9436973527 0.608733
-19.4451102048 0.594456
-18.9465227862 0.59905
-18.447935097 0.589882
-17.9493471371 0.584526
-17.4507589065 0.593918
-16.952170405 0.594724
-16.4535816328 0.609203
-15.9549925898 0.633009
-15.4564032758 0.624346
-14.957813691 0.607928
-14.4592238352 0.604975
-13.9606337084 0.606882
-13.4620433106 0.620562
-12.9634526418 0.63883
-12.4648617019 0.664385
-11.9662704908 0.687134
-11.4676790086 0.676098
-10.9690872552 0.661716
-10.4704952306 0.630443
-9.97190293477 0.607399
-9.47331036762 0.591256
-8.97471752914 0.539436
-8.4761244193 0.4691
-7.97753103806 0.43572
-7.47893738539 0.407667
-6.98034346125 0.362499
-6.48174926562 0.306584
-5.98315479844 0.24532
-5.4845600597 0.218173
-4.98596504935 0.203217
-4.48736976737 0.192537
-3.98877421371 0.152304
-3.49017838834 0.0925179
-2.99158229123 0.106218
-2.49298592234 0.139006
-1.99438928163 0.122208
-1.49579236908 0.110823
-0.99719518465 0.107571
-0.498597728301 0.103941
0 0.0973654
0.498598000286 0.0868792
0.997196272593 0.0776267
1.49579481695 0.0716049
1.99439363341 0.0614495
2.49299272198 0.0415752
2.99159208272 0.0203152
3.49019171564 0
3.9887916208 0.000149217
4.48739179822 0.0108771
4.98599224793 0.0267738
5.48459296998 0.0363013
5.98319396439 0.0529973
6.48179523121 0.0662116
6.98039677046 0.0885649
7.47899858218 0.146654
7.9776006664 0.254981
8.47620302316 0.305071
8.9748056525 0.33834
9.47340855444 0.369647
9.97201172902 0.39363
10.4706151763 0.387343
10.9692188963 0.416337
11.467822889 0.471808
11.9664271545 0.541831
12.4650316928 0.644526
12.963636504 0.791561
13.462241588 0.959431
13.960846945 1.1069
14.4594525749 1.26121
14.9580584778 1.40951
15.4566646537 1.51704
15.9552711027 1.53803
16.4538778248 1.45172
16.9524848199 1.43221
17.4510920883 1.46739
17.9496996298 1.48807
18.4483074446 1.49195
18.9469155327 1.46574
19.445523894 1.44409
19.9441325286 1.46754
20.4427414367 1.48426
20.9413506181 1.4538
21.439960073 1.43628
21.9385698013 1.46657
22.4371798031 1.46547
22.9357900785 1.43124
23.4344006274 1.35314
23.93301145 1.27008
24.4316225461 1.2037
24.930233916 1.16391
