-24.9295731851 1.23973
-24.4309883672 1.2618
-23.9324032786 1.26659
-23.4338179193 1.27138
-22.9352322892 1.25089
-22.4366463883 1.23218
-21.9380602165 1.21065
-21.4394737739 1.19002
-20.9408870604 1.15653
-20.4423000759 1.11235
-19.9437128204 1.08042
-19.445125294 1.06919
-18.9465374965 1.07242
-18.4479494279 1.08579
-17.9493610881 1.06731
-17.4507724773 1.04897
-16.9521835952 1.017
-16.4535944419 0.977929
-15.9550050174 0.954401
-15.4564153216 0.955838
-14.9578253544 0.939744
-14.4592351159 0.890699
-13.9606446059 0.840841
-13.4620538246 0.793064
-12.9634627718 0.749558
-12.4648714475 0.707189
-11.9662798516 0.677056
-11.4676879842 0.665588
-10.9690958452 0.653224
-10.4705034345 0.642821
-9.97191075213 0.653588
-9.47331779808 0.677255
-8.97472457228 0.701953
-8.4761310747 0.716413
-7.9775373053 0.710819
-7.47894326406 0.700458
-6.98034895093 0.703028
-6.48175436589 0.70811
-5.98315950889 0.722012
-5.48456437991 0.689936
-4.9859689789 0.699755
-4.48737330584 0.697826
-3.98877736068 0.663238
-3.4901811434 0.641863
-2.99158465396 0.635332
-2.49298789233 0.66646
-1.99439085846 0.681275
-1.49579355233 0.653212
-0.997195973897 0.585948
-0.498598123133 0.498974
0 0.307461
0.498598395536 0.0930316
0.99719706351 0.0195964
1.49579600396 0
1.99439521691 0.00218852
2.4929947024 0.0270097
2.99159446047 0.0728714
3.49019449116 0.133531
3.98879479448 0.247466
4.48739537049 0.430594
4.98599621921 0.593775
5.48459734068 0.662345
5.98319873493 0.68055
6.481800402 0.695434
6.98040234192 0.741411
7.47900455473 0.819614
7.97760704046 0.918471
8.47620979915 1.02829
8.97481283082 1.10879
9.47341613553 1.20574
9.97201971329 1.30658
10.4706235641 1.36939
10.9692276881 1.4517
11.4678320853 1.54522
11.9664367556 1.62804
12.4650416992 1.68217
12.963646916 1.71772
13.4622524062 1.72966
13.9608581696 1.76645
14.4594642065 1.78603
14.9580705167 1.7514
15.4566771004 1.70775
15.9552839576 1.68526
16.4538910883 1.66672
16.9524984925 1.65431
17.4511061702 1.64116
17.9497141216 1.63495
18.4483223467 1.62324
18.9469308454 1.61026
19.4455396178 1.57645
19.944148664 1.54429
20.442757984 1.51063
20.9413675777 1.52166
21.4399774454 1.49798
21.9385875869 1.47672
22.4371980023 1.40719
22.9358086917 1.28632
23.4344196551 1.20102
23.9330308925 1.17243
24.4316424039 1.18056
24.9302541894 1.16487
