-24.9338155883 1.00305
-24.4351457572 0.955991
-23.9364756621 0.91449
-23.437805303 0.880986
-22.9391346798 0.857108
-22.4404637925 0.856553
-21.9417926411 0.854764
-21.4431212256 0.842116
-20.9444495458 0.835587
-20.4457776018 0.87712
-19.9471053936 0.908728
-19.4484329211 0.933601
-18.9497601843 0.943911
-18.4510871831 0.939199
-17.9524139175 0.948922
-17.4537403875 0.952549
-16.9550665931 0.931641
-16.4563925341 0.908899
-15.9577182107 0.903433
-15.4590436227 0.942247
-14.9603687701 0.950106
-14.4616936529 0.935936
-13.9630182711 0.925003
-13.4643426246 0.93354
-12.9656667133 0.905016
-12.4669905374 0.852773
-11.9683140966 0.821685
-11.469637391 0.795626
-10.9709604206 0.756244
-10.4722831853 0.711935
-9.97360568513 0.654423
-9.47492791999 0.599783
-8.97624988988 0.590416
-8.47757159476 0.602635
-7.9788930346 0.625014
-7.48021420936 0.645685
-6.98153511902 0.661003
-6.48285576355 0.666391
-5.9841761429 0.664074
-5.48549625705 0.663683
-4.98681610597 0.641731
-4.48813568961 0.568225
-3.98945500796 0.498081
-3.49077406097 0.43738
-2.99209284862 0.369465
-2.49341137087 0.329273
-1.99472962769 0.263227
-1.49604761904 0.148938
-0.997365344901 0.101351
-0.498682805231 0.0674482
0 0.03307
0.498683070825 0.00439058
0.997366407275 0
1.49605000938 0.00862164
1.99473387718 0.0139523
2.49341801071 0.0144277
2.99210240999 0.0174947
3.49078707506 0.027971
3.98947200595 0.0535763
4.48815720269 0.0998412
4.98684266532 0.116653
5.48552839386 0.10766
5.98421438836 0.0990984
6.48290064884 0.0970255
6.98158717534 0.10516
7.48027396789 0.138132
7.97896102651 0.215107
8.47764835125 0.194874
8.97633594214 0.196617
9.4750237992 0.422187
9.97371192247 0.605526
10.472400312 0.647787
10.9710889678 0.602391
11.4697778899 0.572792
11.9684670783 0.571769
12.4671565331 0.60499
12.9658462543 0.624606
13.464536242 0.581211
13.9632264961 0.520568
14.4619170167 0.470984
14.9606078039 0.460204
15.4592988576 0.494154
15.9579901779 0.543055
16.4566817649 0.607355
16.9553736185 0.674899
17.4540657388 0.664202
17.9527581258 0.680266
18.4514507796 0.812736
18.9501437002 0.975503
19.4488368876 0.990163
19.9475303419 0.980281
20.4462240631 0.92752
20.9449180512 0.887975
21.4436123062 0.830775
21.9423068282 0.805384
22.4410016173 0.809023
22.9396966734 0.817921
23.4383919965 0.831254
23.9370875868 0.837135
24.4357834443 0.842298
24.9344795689 0.846112
