-24.9378297506 0.398694
-24.439079484 0.405774
-23.9403289595 0.404147
-23.4415781773 0.397168
-22.9428271372 0.391525
-22.4440758391 0.379228
-21.9453242832 0.38037
-21.4465724693 0.394784
-20.9478203974 0.398396
-20.4490680674 0.40454
-19.9503154794 0.418455
-19.4515626333 0.428276
-18.9528095291 0.438838
-18.4540561668 0.457929
-17.9553025462 0.502002
-17.4565486675 0.531008
-16.9577945305 0.559333
-16.4590401352 0.523826
-15.9602854817 0.504604
-15.4615305698 0.482515
-14.9627753995 0.480032
-14.4640199709 0.497829
-13.9652642838 0.510518
-13.4665083382 0.488064
-12.9677521342 0.449058
-12.4689956717 0.3902
-11.9702389506 0.362333
-11.4714819709 0.354443
-10.9727247326 0.361348
-10.4739672357 0.338458
-9.97520948011 0.261616
-9.47645146582 0.199727
-8.97769319279 0.162885
-8.47893466099 0.136523
-7.98017587041 0.102065
-7.48141682099 0.0742723
-6.98265751273 0.0547499
-6.48389794557 0.042643
-5.9851381195 0.0362984
-5.48637803448 0.0503537
-4.98761769049 0.0563235
-4.48885708748 0.0371934
-3.99009622544 0.032004
-3.49133510433 0.0344577
-2.99257372411 0.0363063
-2.49381208477 0.0388983
-1.99505018626 0.0394111
-1.49628802856 0.031041
-0.997525611635 0.0274594
-0.49876293546 0.0234806
0 0.0206883
0.498763194774 0.0163134
0.997526648893 0.0173532
1.49629036239 0.0084085
1.99505433529 0
2.49381856763 0.00212361
2.99258305943 0.00962945
3.49134781073 0.0278245
3.99011282157 0.0376218
4.48887809196 0.0156482
4.98764362193 0.0258932
5.48640941153 0.0741357
5.98517546078 0.142931
6.48394176971 0.236793
6.98270833835 0.28768
7.48147516673 0.284038
7.98024225489 0.288626
8.47900960284 0.304141
8.97777721063 0.388525
9.47654507829 0.552625
9.97531320583 0.654899
10.4740815933 0.763797
10.9728502407 0.809395
11.4716191481 0.795365
11.9703883156 0.773083
12.469157743 0.752937
12.9679274306 0.805476
13.4666973782 0.852741
13.965467586 1.09745
14.464238054 1.26912
14.9630087821 1.30854
15.4617797705 1.34481
15.9605510192 1.33271
16.4593225281 1.2999
16.9580942974 1.2716
17.456866327 1.27697
17.9556386169 1.25282
18.4544111673 1.23325
18.9531839782 1.21012
19.4519570495 1.20165
19.9507303813 1.19685
20.4495039736 1.19864
20.9482778265 1.18039
21.44705194 1.14315
21.9458263141 1.07872
22.4446009489 1.0191
22.9433758443 1.0047
23.4421510005 1.00349
23.9409264174 1.01618
24.4397020951 1.00202
24.9384780335 0.984329
