-24.9295474802 0.62231
-24.4309631651 0.614006
-23.9323785798 0.60363
-23.4337937242 0.588963
-22.9352085982 0.57295
-22.436623202 0.563005
-21.9380375353 0.55915
-21.4394515983 0.559032
-20.9408653908 0.557664
-20.4422789128 0.549998
-19.9436921643 0.534964
-19.4451051453 0.520957
-18.9465178556 0.511627
-18.4479302954 0.512398
-17.9493424644 0.521506
-17.4507543628 0.525445
-16.9521659905 0.534965
-16.4535773474 0.537274
-15.9549884335 0.535692
-15.4563992488 0.544107
-14.9578097932 0.512075
-14.4592200667 0.489558
-13.9606300692 0.498282
-13.4620398008 0.497014
-12.9634492614 0.48838
-12.464858451 0.478436
-11.9662673695 0.47796
-11.4676760168 0.478113
-10.969084393 0.465053
-10.4704924981 0.445075
-9.97190033191 0.418394
-9.47330789449 0.392149
-8.97471518579 0.370145
-8.47612220576 0.365638
-7.97752895439 0.368663
-7.47893543162 0.341035
-6.98034163743 0.292926
-6.48174757179 0.262158
-5.98315323465 0.23272
-5.48455862599 0.205974
-4.98596374576 0.168017
-4.48736859394 0.112125
-3.98877317049 0.0688844
-3.49017747537 0.0826617
-2.99158150855 0.0634994
-2.49298527 0.035365
-1.99438875968 0.0200593
-1.49579197755 0.015674
-0.997194923585 0.0166869
-0.498597597746 0.0215173
0 0.0242831
0.498597869689 0.022647
0.997196011354 0.0218557
1.49579442503 0.0191547
1.99439311076 0.00693509
2.49299206856 0
2.99159129848 0.00402787
3.49019080055 0.0229468
3.98879057481 0.0513507
4.48739062128 0.0662484
4.98599094001 0.0764187
5.48459153103 0.133722
5.98319239437 0.218825
6.48179353007 0.315794
6.98039493815 0.411676
7.47899661867 0.457297
7.97759857165 0.478313
8.47620079712 0.481462
8.97480329512 0.492977
9.47340606569 0.571853
9.97200910886 0.695531
10.4706124247 0.75515
10.9692160131 0.764262
11.4678198743 0.779736
11.9664240082 0.816737
12.4650284149 0.859205
12.9636330944 0.902233
13.4622380467 0.949904
13.9608432719 0.992902
14.45944877 1.03569
14.958054541 1.06468
15.4566605851 1.07956
15.9552669021 1.08073
16.4538734922 1.05069
16.9524803554 0.988284
17.4510874917 0.899913
17.9496949011 0.822406
18.4483025837 0.856282
18.9469105396 0.932109
19.4455187686 0.972347
19.944127271 1.01091
20.4427360467 1.05128
20.9413450958 1.09095
21.4399544182 1.12887
21.9385640141 1.15144
22.4371738834 1.1249
22.9357840263 1.07157
23.4343944426 1.04117
23.9330051325 1.03102
24.431616096 1.03579
24.9302273332 1.04767
