-24.9331752548 0.99522
-24.4345182453 0.96412
-23.9358609712 0.937111
-23.4372034325 0.930076
-22.9385456291 0.939556
-22.439887561 0.942561
-21.9412292282 0.940914
-21.4425706306 0.938528
-20.9439117682 0.937409
-20.445252641 0.935406
-19.9465932489 0.931745
-19.447933592 0.922054
-18.9492736701 0.92916
-18.4506134832 0.93813
-17.9519530314 0.947097
-17.4532923145 0.9576
-16.9546313326 0.948195
-16.4559700855 0.957102
-15.9573085734 0.967987
-15.4586467961 0.979444
-14.9599847536 0.986137
-14.4613224458 0.982816
-13.9626598728 0.978526
-13.4639970345 0.990874
-12.9653339309 1.0145
-12.466670562 0.984465
-11.9680069276 0.956989
-11.4693430278 0.950551
-10.9706788626 0.948689
-10.4720144318 0.923591
-9.97334973559 0.883322
-9.47468477378 0.831041
-8.97601954638 0.774466
-8.47735405336 0.732047
-7.97868829468 0.689837
-7.48002227032 0.664284
-6.98135598024 0.651607
-6.4826894244 0.654627
-5.98402260278 0.644277
-5.48535551534 0.619967
-4.98668816205 0.608787
-4.48802054287 0.6115
-3.98935265777 0.578803
-3.49068450672 0.527818
-2.99201608969 0.486932
-2.49334740664 0.467516
-1.99467845754 0.450191
-1.49600924236 0.435223
-0.997339761068 0.406669
-0.498670013624 0.384486
0 0.366424
0.498670279838 0.337254
0.997340825923 0.264738
1.49601163829 0.193328
1.99468271696 0.170152
2.49335406199 0.094231
2.99202567338 0.0281661
3.4906975512 0
3.98936969545 0.023686
4.48804210618 0.0380929
4.98671478342 0.029278
5.4853877272 0.145166
5.98406093755 0.512651
6.48273441452 0.840469
6.98140815812 1.07539
7.48008216839 1.00159
7.97875644537 0.848179
8.47743098909 0.860089
8.97610579958 0.951684
9.47478087688 1.0226
9.97345622101 1.05866
10.472131832 1.0709
10.9708077099 1.08266
11.4694838547 1.08639
11.9681602665 1.08293
12.4668369453 1.0737
12.9655138912 1.05225
13.4641911041 1.02728
13.9628685841 1.00195
14.4615463312 0.972137
14.9602243455 0.944452
15.458902627 0.930799
15.9575811757 0.928578
16.4562599917 0.914213
16.954939075 0.897133
17.4536184256 0.883779
17.9522980435 0.870386
18.4509779289 0.851365
18.9496580816 0.832417
19.4483385019 0.812028
19.9470191896 0.781705
20.4457001448 0.7603
20.9443813676 0.780699
21.443062858 0.811053
21.941744616 0.825797
22.4404266417 0.829941
22.939108935 0.828843
23.4377914961 0.842912
23.9364743249 0.863732
24.4351574214 0.861091
24.9338407859 0.851249
