-24.9332035764 1.32957
-24.434546005 1.35606
-23.9358881689 1.38125
-23.4372300679 1.37339
-22.9385717021 1.3412
-22.4399130714 1.35162
-21.9412541757 1.38765
-21.4425950152 1.39624
-20.9439355896 1.3872
-20.445275899 1.36438
-19.9466159434 1.32977
-19.4479557227 1.30239
-18.9492952369 1.26902
-18.4506344859 1.20671
-17.9519734698 1.13823
-17.4533121884 1.08905
-16.9546506418 1.02871
-16.4559888299 0.962139
-15.9573267527 0.872011
-15.4586644102 0.801054
-14.9600018023 0.745222
-14.4613389289 0.714422
-13.9626757902 0.71492
-13.4640123859 0.707903
-12.9653487161 0.656883
-12.4666847808 0.65969
-11.9680205799 0.650195
-11.4693561134 0.633201
-10.9706913813 0.629199
-10.4720263835 0.65861
-9.97336111997 0.645269
-9.4746955907 0.569498
-8.97602979566 0.527799
-8.47736373482 0.509908
-7.97869740813 0.474062
-7.48003081557 0.425213
-6.9813639571 0.4
-6.4826968327 0.379122
-5.98402944232 0.343483
-5.48536178594 0.310844
-4.98669386352 0.2992
-4.48802567503 0.314756
-3.98935722043 0.335983
-3.4906884997 0.330388
-2.9920195128 0.322685
-2.4933502597 0.326828
-1.99468074036 0.305196
-1.49601095475 0.292472
-0.997340902847 0.301887
-0.498670584607 0.306334
0 0.316786
0.498670851005 0.349357
0.997341968443 0.397256
1.49601335235 0.455077
1.99468500275 0.395205
2.49335691968 0.305173
2.99202910317 0.214103
3.49070155326 0.118791
3.98937426998 0.0435249
4.48804725336 0.00079606
4.98672050344 0
5.48539402024 0.0601789
5.9840678038 0.157014
6.48274185415 0.317763
6.98141617133 0.45384
7.48009075537 0.52954
7.9787656063 0.637213
8.47744072415 0.776233
8.97611610896 0.890355
9.47479176076 0.956324
9.97346767958 0.967812
10.4721438655 0.78499
10.9708203184 0.745722
11.4694970385 0.883494
11.9681740257 1.04579
12.4668512801 1.1202
12.9655288018 1.17975
13.4642065907 1.21418
13.9628846468 1.18388
14.4615629703 1.12883
14.9602415611 1.08732
15.4589204194 1.05597
15.957599545 0.969388
16.4562789381 0.915759
16.9549585986 0.942291
17.4536385267 0.938659
17.9523187223 0.916443
18.4509991855 0.887727
18.9496799163 0.85681
19.4483609147 0.792273
19.9470421808 0.705567
20.4457237146 0.656001
20.9444055162 0.662169
21.4430875855 0.659088
21.9417699226 0.658163
22.4404525276 0.672594
22.9391354004 0.68439
23.4378185412 0.686992
23.9365019499 0.699001
24.4351856265 0.717425
24.9338695711 0.73359
