-24.9297950366 1.71474
-24.4312057637 1.65697
-23.9326162208 1.54853
-23.4340264079 1.47185
-22.935436325 1.40437
-22.436845972 1.38628
-21.9382553489 1.35508
-21.4396644557 1.32974
-20.9410732923 1.27189
-20.4424818587 1.23496
-19.9438901548 1.19843
-19.4452981806 1.14635
-18.9467059362 1.12325
-18.4481134213 1.10488
-17.9495206361 1.05852
-17.4509275805 0.997161
-16.9523342544 0.93867
-16.4537406579 0.894209
-15.9551467908 0.859236
-15.4565526531 0.825425
-14.9579582449 0.799006
-14.459363566 0.788037
-13.9607686165 0.779113
-13.4621733963 0.736245
-12.9635779053 0.683254
-12.4649821436 0.614826
-11.966386111 0.565513
-11.4677898077 0.520522
-10.9691932334 0.51255
-10.4705963883 0.507967
-9.97199927222 0.495711
-9.47340188517 0.479573
-8.97480422711 0.471845
-8.476206298 0.45262
-7.97760809781 0.416753
-7.47900962652 0.385306
-6.98041088407 0.372511
-6.48181187044 0.371875
-5.9832125856 0.330655
-5.4846130295 0.266075
-4.98601320212 0.207494
-4.48741310342 0.193709
-3.98881273337 0.15782
-3.49021209192 0.128821
-2.99161117905 0.137115
-2.49300999472 0.138732
-1.9944085389 0.128884
-1.49580681155 0.117704
-0.997204812645 0.121485
-0.498602542138 0.125232
0 0.119393
0.498602813803 0.10109
0.997205899307 0.0854354
1.49580925655 0.0694972
1.99441288555 0.0472442
2.49301678636 0.0263193
2.99162095901 0.00238365
3.49022540353 0
3.98883011996 0.0441551
4.48743510833 0.097155
4.98604036867 0.142564
5.48464590103 0.233745
5.98325170543 0.371679
6.4818577819 0.465751
6.98046413049 0.543386
7.47907075123 0.692798
7.97767764415 0.797062
8.47628480929 0.856318
8.97489224668 0.83404
9.47349995636 0.855674
9.97210793835 0.901425
10.4707161927 0.940019
10.9693247194 0.960878
11.4679335186 0.993084
11.9665425902 0.982202
12.4651519343 0.893764
12.9637615509 0.818227
13.4623714401 0.806599
13.9609816019 0.856019
14.4595920363 0.965007
14.9582027434 0.888483
15.4568137232 0.85201
15.9554249757 0.85756
16.454036501 0.89902
16.9526482991 0.951373
17.45126037 1.01007
17.9498727137 1.06831
18.4484853304 1.00724
18.94709822 0.864416
19.4457113826 1.03799
19.9443248182 1.3143
20.4429385269 1.45469
20.9415525086 1.52188
21.4401667634 1.52421
21.9387812914 1.54879
22.4373960925 1.56775
22.9360111668 1.55085
23.4346265144 1.53064
23.9332421353 1.52521
24.4318580295 1.56422
24.930474197 1.58856
