-24.9295059522 0.725667
-24.4309224605 0.728562
-23.9323386988 0.72965
-23.4337546672 0.739687
-22.9351703655 0.747575
-22.4365857938 0.767052
-21.938000952 0.779118
-21.4394158401 0.788032
-20.9408304581 0.794777
-20.4422448058 0.798598
-19.9436588834 0.801875
-19.4450726906 0.804471
-18.9464862276 0.810026
-18.4478994942 0.818838
-17.9493124905 0.830583
-17.4507252164 0.840947
-16.9521376718 0.847248
-16.4535498568 0.855893
-15.9549617713 0.862889
-15.4563734152 0.865395
-14.9577847885 0.85382
-14.4591958913 0.835621
-13.9606067234 0.832593
-13.4620172848 0.841132
-12.9634275755 0.860966
-12.4648375955 0.854232
-11.9662473447 0.804919
-11.4676568231 0.774052
-10.9690660306 0.711023
-10.4704749672 0.677003
-9.9718836329 0.686433
-9.47329202765 0.692956
-8.97470015141 0.663668
-8.47610800414 0.604896
-7.97751558581 0.551583
-7.47892289639 0.500703
-6.98032993584 0.444342
-6.48173670412 0.387453
-5.9831432012 0.343847
-5.48454942705 0.30129
-4.98595538163 0.251903
-4.48736106491 0.195834
-3.98876647684 0.139399
-3.49017161741 0.091316
-2.99157648656 0.0571838
-2.49298108428 0.0339146
-1.99438541052 0.0264992
-1.49578946524 0.0238063
-0.99719324842 0.00690983
-0.498596760017 0
0 0.00553717
0.498597031669 0.012213
0.997194335021 0.0213214
1.49579191009 0.0081452
1.99438975692 0.00757046
2.49298787554 0.0349151
2.99158626598 0.0526047
3.49018492827 0.0531894
3.98878386246 0.0526719
4.48738306858 0.0669018
4.98598254666 0.0824112
5.48458229673 0.0997647
5.98318231884 0.118421
6.48178261301 0.170577
6.98038317928 0.234691
7.47898401769 0.304019
7.97758512826 0.384411
8.47618651104 0.460875
8.97478816605 0.544312
9.47339009334 0.64144
9.97199229294 0.757284
10.4705947649 0.834179
10.9691975092 0.879265
11.4678005259 0.927234
11.9664038151 0.98334
12.4650073767 1.04595
12.9636112109 1.09971
13.4622153176 1.14608
13.9608196969 1.15788
14.4594243488 1.172
14.9580292734 1.17789
15.4566344706 1.21642
15.9552399406 1.25329
16.4538456833 1.26821
16.9524516988 1.27172
17.4510579872 1.27719
17.9496645484 1.24533
18.4482713825 1.1808
18.9468784895 1.14474
19.4454858695 1.12194
19.9440935225 1.15709
20.4427014485 1.18473
20.9413096475 1.16216
21.4399181197 1.14179
21.938526865 1.14308
22.4371358835 1.15543
22.9357451752 1.16447
23.4343547401 1.11137
23.9329645782 1.02282
24.4315746897 1.0018
24.9301850746 1.02777
