-24.929785944 0.170656
-24.4311968515 0.142074
-23.932607489 0.143135
-23.4340178566 0.172292
-22.9354279543 0.185905
-22.4368377819 0.162194
-21.9382473394 0.179954
-21.4396566269 0.260589
-20.9410656443 0.326897
-20.4424743915 0.333325
-19.9438828686 0.334199
-19.4452910754 0.34862
-18.9466990119 0.354133
-18.4481066782 0.403652
-17.9495140742 0.487153
-17.4509211997 0.555002
-16.9523280549 0.604158
-16.4537346397 0.602888
-15.955140954 0.647981
-15.4565469978 0.663378
-14.9579527711 0.536242
-14.4593582738 0.439475
-13.9607635059 0.386824
-13.4621684674 0.396592
-12.9635731582 0.414671
-12.4649775783 0.42148
-11.9663817276 0.392782
-11.4677856062 0.354058
-10.969189214 0.293201
-10.4705925509 0.25766
-9.97199561696 0.233054
-9.47339841209 0.191083
-8.97480093627 0.142907
-8.47620318947 0.1161
-7.97760517166 0.0892889
-7.47900688279 0.0683922
-6.98040832283 0.0436471
-6.48180949176 0.0234173
-5.98321038952 0.00927439
-5.4846110161 0
-4.98601137145 0.00108846
-4.48741145555 0.0292314
-3.98881126835 0.12614
-3.49021080982 0.22488
-2.99161007992 0.290358
-2.49300907863 0.289745
-1.99440780591 0.248593
-1.49580626172 0.19393
-0.997204446025 0.141431
-0.498602358798 0.109454
0 0.091779
0.498602630402 0.081644
0.997205532444 0.0952037
1.49580870616 0.105985
1.99441215158 0.105136
2.49301586875 0.10026
2.9916198577 0.0921721
3.49022411845 0.0931496
3.98882865105 0.102963
4.48743345554 0.140376
4.98603853193 0.187543
5.48464388028 0.219855
5.98324950061 0.258545
6.48185539296 0.311469
6.98046155736 0.376076
7.47906799385 0.447995
7.97767470246 0.502458
8.47628168323 0.520579
8.97488893619 0.533424
9.47349646137 0.531183
9.97210425881 0.516945
10.4707123285 0.497279
10.9693206706 0.486595
11.467929285 0.490524
11.9665381719 0.501888
12.4651473311 0.544516
12.9637567628 0.702581
13.462366467 0.779464
13.9609764438 0.842614
14.4595866931 0.925704
14.958197215 1.01741
15.4568080096 1.09727
15.9554190768 1.20334
16.4540304167 1.11092
16.9526420294 1.00599
17.4512539149 1.0485
17.9498660731 1.09682
18.4484785042 1.08211
18.9470912082 1.07116
19.4457041851 1.09123
19.9443174349 1.1148
20.4429309577 1.17943
20.9415447535 1.23223
21.4401588224 1.2658
21.9387731644 1.29109
22.4373877794 1.31232
22.9360026677 1.32433
23.4346178291 1.34344
23.9332332637 1.36921
24.4318489716 1.35765
24.9304649527 1.33806
