-24.9302061726 0.92283
-24.4316086589 0.948465
-23.933010876 0.939322
-23.4344128238 0.892675
-22.9358145023 0.849905
-22.4372159115 0.809285
-21.9386170513 0.824371
-21.4400179216 0.848956
-20.9414185226 0.855156
-20.4428188541 0.838583
-19.944218916 0.805966
-19.4456187084 0.772787
-18.9470182313 0.76151
-18.4484174845 0.755061
-17.9498164681 0.761652
-17.451215182 0.775527
-16.9526136261 0.790586
-16.4540118006 0.801653
-15.9554097052 0.800428
-15.45680734 0.769601
-14.958204705 0.743428
-14.4596018 0.722003
-13.9609986252 0.70341
-13.4623951804 0.685349
-12.9637914655 0.65461
-12.4651874807 0.635389
-11.9665832258 0.639207
-11.4679787008 0.677638
-10.9693739057 0.712043
-10.4707688404 0.734149
-9.97216350489 0.756973
-9.47355789916 0.78429
-8.97495202316 0.797724
-8.47634587686 0.799229
-7.97773946022 0.776412
-7.47913277321 0.755822
-6.98052581579 0.743489
-6.48191858794 0.717787
-5.9833110896 0.669348
-5.48470332076 0.604358
-4.98609528137 0.543217
-4.4874869714 0.506661
-3.98887839082 0.449025
-3.49026953959 0.393641
-2.99166041769 0.344914
-2.49305102506 0.284006
-1.99444136169 0.227577
-1.49583142753 0.201137
-0.99722122255 0.171359
-0.498610746718 0.121844
0 0.0854535
0.49861101764 0.0666183
0.997222306237 0.0462648
1.49583386582 0.00970384
1.99444569643 0
2.4930577981 0.037178
2.99167017087 0.130079
3.49028281476 0.296128
3.98889572981 0.499291
4.48750891606 0.727729
4.98612237354 0.864931
5.48473610228 0.959502
5.98335010232 1.00665
6.48196437369 1.03496
6.98057891643 1.10093
7.47919373057 1.16734
7.97780881615 1.26161
8.4764241732 1.34387
8.97503980175 1.38381
9.47365570184 1.38482
9.9722718735 1.35917
10.4708883168 1.35159
10.9695050317 1.35394
11.4681220183 1.33792
11.9667392765 1.3112
12.4653568066 1.3082
12.9639746084 1.30185
13.462592682 1.32208
13.9612110275 1.36557
14.4598296448 1.41033
14.9584485341 1.41991
15.4570676953 1.37883
15.9556871285 1.35539
16.4543068337 1.34159
16.9529268109 1.32734
17.4515470603 1.31536
17.9501675817 1.32014
18.4487883753 1.31191
18.9474094411 1.2518
19.4460307791 1.2008
19.9446523894 1.2213
20.4432742719 1.23156
20.9418964268 1.22526
21.4405188541 1.21925
21.9391415537 1.20798
22.4377645257 1.16404
22.9363877702 1.10283
23.4350112872 1.07694
23.9336350767 1.0775
24.4322591388 1.08422
24.9308834735 1.08619
