-24.9378384682 0.575642
-24.4390880286 0.527644
-23.9403373312 0.477497
-23.4415863758 0.463063
-22.9428351626 0.453874
-22.4440836913 0.457856
-21.9453319621 0.458754
-21.4465799748 0.469226
-20.9478277295 0.474627
-20.4490752262 0.47041
-19.9503224647 0.455642
-19.451569445 0.459807
-18.9528161672 0.456777
-18.4540626312 0.46253
-17.955308837 0.469269
-17.4565547845 0.463284
-16.9578004736 0.461275
-16.4590459045 0.472435
-15.960291077 0.456355
-15.4615359911 0.385522
-14.9627806468 0.301131
-14.464025044 0.271423
-13.9652691828 0.281906
-13.4665130631 0.27202
-12.9677566848 0.238805
-12.4690000479 0.190524
-11.9702431524 0.151947
-11.4714859983 0.119894
-10.9727285855 0.109337
-10.4739709141 0.112504
-9.97521298386 0.10408
-9.47645479491 0.0999494
-8.97769634716 0.0907027
-8.4789376406 0.0751683
-7.98017867518 0.0670801
-7.48141945089 0.0634189
-6.98265996769 0.0601095
-6.48390022554 0.0616798
-5.98514022442 0.0788562
-5.4863799643 0.086734
-4.98761944514 0.0906758
-4.48885866692 0.0953955
-3.9900976296 0.0862357
-3.49133633316 0.0648562
-2.99257477757 0.0485399
-2.49381296278 0.0431691
-1.99505088878 0.0300737
-1.49628855554 0.0109279
-0.99752596301 0.0215998
-0.498763111174 0.0316291
0 0.0395896
0.498763370545 0.0426896
0.99752700049 0.0483071
1.49629088987 0.0520256
1.9950550387 0.0436574
2.49381944704 0.0206201
2.99258411489 0.00180051
3.49134904229 0
3.99011422928 0.00300957
4.48887967589 0.0133421
4.98764538214 0.0270965
5.48641134806 0.0281467
5.98517757369 0.0258342
6.48394405905 0.0564943
6.98271080419 0.0949401
7.48147780912 0.218373
7.98024507387 0.356914
8.47901259849 0.415647
8.97778038299 0.491658
9.47654842741 0.559046
9.97531673178 0.63537
10.4740852961 0.698436
10.9728541205 0.687772
11.4716232049 0.682295
11.9703925494 0.703715
12.4691621539 0.729675
12.9679320186 0.776746
13.4667021435 0.867194
13.9654725286 0.99295
14.4642431739 1.08635
14.9630140794 1.10332
15.4617852452 1.10497
15.9605566713 1.14734
16.4593283578 1.30173
16.9581003047 1.39405
17.4568725119 1.28867
17.9556449796 1.21194
18.4544177078 1.1795
18.9531906964 1.15664
19.4519639456 1.1442
19.9507374553 1.13747
20.4495112257 1.12742
20.9482852566 1.10675
21.4470595482 1.07559
21.9458341005 1.05362
22.4446089134 1.04182
22.9433839871 1.02882
23.4421593216 1.02418
23.9409349169 1.02663
24.439710773 1.0202
24.93848689 1.01528
