-24.9297986479 1.03648
-24.4312093034 1.04741
-23.9326196888 1.05966
-23.4340298043 0.996895
-22.9354396496 0.913122
-22.4368492249 0.852254
-21.9382585301 0.808739
-21.439667565 0.808203
-20.9410763298 0.81874
-20.4424848244 0.844753
-19.9438930486 0.856198
-19.4453010026 0.855467
-18.9467086862 0.830425
-18.4481160995 0.792375
-17.9495232424 0.724037
-17.4509301148 0.640984
-16.9523367167 0.565481
-16.4537430481 0.580633
-15.955149109 0.621322
-15.4565548992 0.66896
-14.9579604189 0.697559
-14.4593656679 0.609166
-13.9607706462 0.563453
-13.4621753539 0.513177
-12.9635797907 0.497147
-12.4649839568 0.468621
-11.966387852 0.42539
-11.4677914764 0.402463
-10.9691948298 0.390399
-10.4705979124 0.331479
-9.97200072398 0.253078
-9.47340326457 0.261384
-8.97480553412 0.285485
-8.47620753261 0.25435
-7.97760925999 0.231605
-7.47901071624 0.190409
-6.98041190131 0.149767
-6.48181281518 0.136594
-5.98321345781 0.155559
-5.48461382917 0.148451
-4.98601392921 0.12189
-4.48741375791 0.106663
-3.98881331523 0.0903016
-3.49021260113 0.0524669
-2.99161161559 0.0431579
-2.49301035857 0.0463022
-1.99440883003 0.0354118
-1.49580702993 0.0219635
-0.997204958254 0.0109046
-0.498602614955 0.00399998
0 0.00876892
0.498602886644 0.016515
0.997206045013 0.00850044
1.49580947514 0.00247487
1.99441317706 0
2.49301715081 0.00078241
2.99162139642 0.00529028
3.49022591392 0.0265294
3.98883070336 0.0484125
4.48743576476 0.0514911
4.98604109817 0.0691673
5.4846467036 0.12883
5.98325258111 0.206021
6.48185873071 0.277321
6.98046515246 0.290036
7.47907184638 0.294404
7.9776788125 0.374162
8.47628605087 0.479924
8.9748935615 0.533999
9.47350134445 0.539962
9.97210939975 0.540875
10.4707177274 0.549605
10.9693263275 0.566141
11.4679352 0.599488
11.966544345 0.665123
12.4651537626 0.691815
12.9637634526 0.718492
13.4623734153 0.73585
13.9609836506 0.775635
14.4595941585 0.797101
14.9582049391 0.785714
15.4568159925 0.804782
15.9554273186 0.845129
16.4540389175 0.911224
16.9526507892 0.969757
17.4512629337 0.949408
17.9498753512 0.908567
18.4484880416 1.04316
18.9471010049 1.21249
19.4457142413 1.35391
19.9443277506 1.47184
20.4429415331 1.55717
20.9415555886 1.58634
21.4401699173 1.59444
21.9387845191 1.6143
22.4373993942 1.64826
22.9360145424 1.68983
23.434629964 1.70792
23.9332456588 1.68735
24.431861627 1.6502
24.9304778686 1.59001
