-24.9299054981 1.31407
-24.4313140087 1.31559
-23.9327222496 1.32889
-23.4341302208 1.31807
-22.9355379223 1.26751
-22.436945354 1.21856
-21.9383525159 1.18761
-21.439759408 1.17568
-20.9411660301 1.15742
-20.4425723824 1.12863
-19.9439784647 1.07441
-19.445384277 1.01125
-18.9467898193 0.981104
-18.4481950915 0.955521
-17.9496000937 0.955544
-17.4510048257 0.941584
-16.9524092876 0.96242
-16.4538134793 1.00793
-15.9552174007 1.09085
-15.4566210519 1.16326
-14.9580244328 1.2377
-14.4594275434 1.33475
-13.9608303835 1.41243
-13.4622329533 1.4734
-12.9636352527 1.41474
-12.4650372816 1.30162
-11.96643904 1.17082
-11.4678405278 1.02077
-10.9692417451 0.902399
-10.4706426918 0.818072
-9.97204336778 0.745768
-9.47344377312 0.680685
-8.97484390775 0.615835
-8.47624377164 0.547471
-7.97764336474 0.47949
-7.47904268703 0.413558
-6.98044173847 0.354998
-6.48184051902 0.313984
-5.98323902865 0.287975
-5.48463726733 0.259679
-4.98603523503 0.216909
-4.48743293169 0.147582
-3.98883035731 0.0997056
-3.49022751183 0.0762377
-2.99162439522 0.0543626
-2.49302100745 0.0393372
-1.99441734849 0.0487453
-1.4958134183 0.0513312
-0.997209216842 0.0491424
-0.498604744088 0.0181045
0 0
0.498605015456 0.00883811
0.997210302312 0.0312394
1.49581586061 0.0766379
1.99442169037 0.14361
2.49302779164 0.229047
2.99163416445 0.289044
3.49024080883 0.293277
3.98884772482 0.238792
4.48745491246 0.146755
4.98606237177 0.100527
5.48467010279 0.0599033
5.98327810556 0.0677084
6.48188638011 0.0777919
6.98049492647 0.0829212
7.47910374469 0.0783765
7.97771283478 0.0661896
8.47632219679 0.0771562
8.97493183076 0.10672
9.47354173671 0.112495
9.97215191468 0.095267
10.4707623647 0.115939
10.9693730868 0.165928
11.4679840811 0.227367
11.9665953475 0.325321
12.4652068861 0.431532
12.9638186969 0.515027
13.4624307799 0.544349
13.9610431353 0.567285
14.459655763 0.570441
14.9582686631 0.638116
15.4568818355 0.805967
15.9554952804 0.914381
16.4541089978 0.991071
16.9527229877 1.04088
17.4513372501 1.06455
17.949951785 1.10278
18.4485665926 1.0665
18.9471816728 1.0328
19.4457970257 1.00004
19.9444126512 0.906586
20.4430285496 0.874949
20.9416447207 0.870217
21.4402611646 0.8782
21.9388778813 0.911546
22.4374948709 0.937476
22.9361121335 0.954612
23.4347296689 0.96283
23.9333474774 0.971464
24.4319655589 0.969911
24.9305839134 0.971839
