-24.9294813624 1.02313
-24.4308983744 0.981836
-23.9323151159 0.975421
-23.4337315869 0.972926
-22.9351477874 0.939394
-22.4365637174 0.92968
-21.9379793769 0.939506
-21.4393947657 0.935976
-20.9408098839 0.912176
-20.4422247314 0.906942
-19.9436393082 0.88522
-19.4450536143 0.849868
-18.9464676496 0.844298
-18.4478814141 0.815534
-17.9492949077 0.788777
-17.4507081305 0.760304
-16.9521210823 0.732636
-16.4535337632 0.725029
-15.9549461731 0.723915
-15.4563583119 0.731538
-14.9577701798 0.750124
-14.4591817765 0.751503
-13.9605931021 0.728775
-13.4620041565 0.70865
-12.9634149397 0.69864
-12.4648254517 0.693136
-11.9662356925 0.68119
-11.4676456619 0.670457
-10.96905536 0.679619
-10.4704647868 0.692364
-9.97187394208 0.706782
-9.47328282597 0.716947
-8.97469143838 0.724889
-8.47609977928 0.705484
-7.97750784864 0.63411
-7.47891564642 0.566991
-6.98032317258 0.534528
-6.4817304271 0.521901
-5.98313740993 0.462103
-5.48454412105 0.390687
-4.98595056041 0.263446
-4.48735672798 0.208277
-3.98876262374 0.15275
-3.49016824763 0.106258
-2.99157359964 0.105638
-2.49297867972 0.091034
-1.99438348783 0.0719244
-1.49578802396 0.0478764
-0.997192288046 0.0140324
-0.498596280073 0
0 0.0169971
0.498596552207 0.0745507
0.997193376583 0.141652
1.49579047316 0.20854
1.99438784198 0.247392
2.49298548307 0.225025
2.99158339647 0.224846
3.49018158221 0.215943
3.98878004033 0.209602
4.48737877085 0.194481
4.98597777383 0.177884
5.48457704928 0.165914
5.98317659725 0.160632
6.48177641777 0.142978
6.98037651087 0.139416
7.47897687659 0.156628
7.97757751496 0.190088
8.47617842603 0.24868
8.97477960981 0.317511
9.47338106635 0.385591
9.97198279568 0.57799
10.4705847978 0.697125
10.9691870729 0.703384
11.4677896208 0.713503
11.9663924416 0.752833
12.4649955354 0.810977
12.9635989022 0.879965
13.4622025421 0.947113
13.960806455 0.962681
14.459410641 0.963159
14.9580151001 0.971487
15.4566198324 0.973132
15.9552248379 0.966765
16.4538301167 0.968291
16.9524356687 0.990276
17.4510414941 1.00144
17.9496475928 0.985281
18.4482539648 0.964438
18.9468606103 0.959616
19.4454675292 0.984678
19.9440747216 0.99957
20.4426821875 0.929059
20.941289927 0.834922
21.43989794 0.750965
21.9385062267 0.698527
22.437114787 0.742892
22.935723621 0.828339
23.4343327287 0.800205
23.9329421102 0.666614
24.4315517655 0.628239
24.9301616946 0.572551
