-24.9338095108 0.99498
-24.4351398002 1.04437
-23.9364698257 1.0488
-23.4377995873 1.03943
-22.9391290848 1.04811
-22.4404583182 1.06997
-21.9417872876 1.08948
-21.4431159929 1.11536
-20.944444434 1.13433
-20.4457726109 1.15382
-19.9471005236 1.18648
-19.4484281721 1.23183
-18.9497555562 1.26138
-18.4510826761 1.27252
-17.9524095316 1.26964
-17.4537361228 1.25164
-16.9550624495 1.22538
-16.4563885118 1.21241
-15.9577143096 1.20565
-15.4590398429 1.16963
-14.9603651117 1.12784
-14.4616901158 1.06764
-13.9630148554 1.02519
-13.4643393303 0.978022
-12.9656635406 0.922437
-12.4669874862 0.874389
-11.968311167 0.832706
-11.469634583 0.818191
-10.9709577343 0.807032
-10.4722806207 0.825924
-9.97360324219 0.844289
-9.47492559882 0.892602
-8.97624769052 0.931422
-8.47756951724 0.948573
-7.97889107897 0.95086
-7.48021237567 0.899743
-6.9815334073 0.816939
-6.48285417383 0.715797
-5.98417467523 0.623238
-5.48549491147 0.544144
-4.98681488251 0.485438
-4.48813458833 0.416075
-3.98945402888 0.399922
-3.49077320414 0.321051
-2.99209211407 0.208175
-2.49341075865 0.114698
-1.99472913783 0.0880244
-1.49604725159 0.0821127
-0.997365099892 0.0523541
-0.498682682707 0.0280582
0 0.00700907
0.498682948261 0
0.997366162108 0.0306671
1.49604964157 0.10786
1.99473338669 0.153114
2.49341739749 0.19181
2.99210167401 0.223716
3.49078621628 0.20311
3.98947102433 0.149848
4.48815609819 0.124078
4.9868414379 0.111635
5.48552704349 0.0896975
5.98421291499 0.0722575
6.48289905243 0.0693286
6.98158545585 0.0746767
7.48027212527 0.0605826
7.97895906074 0.0345634
8.47764626228 0.0629536
8.97633372993 0.137113
9.47502146372 0.196338
9.97370946367 0.123767
10.4723977298 0.171336
10.9710862622 0.18567
11.4697750609 0.219912
11.9684641259 0.298811
12.4671534572 0.388347
12.9658430548 0.448621
13.4645329189 0.48081
13.9632230494 0.511284
14.4619134463 0.534595
14.9606041098 0.680659
15.4592950397 0.850268
15.9579862363 0.959888
16.4566776994 1.06765
16.9553694291 1.12333
17.4540614255 1.19858
17.9527536886 1.13215
18.4514462184 1.02094
18.950139015 0.95718
19.4488320783 0.91635
19.9475254085 0.899188
20.4462190055 0.89194
20.9449128694 0.985612
21.4436070002 1.06571
21.942301398 1.05002
22.4409960627 1.06078
22.9396909945 1.10227
23.4383861932 1.13052
23.9370816591 1.11739
24.4357773921 1.09522
24.9344733922 1.09279
