-24.9338459266 1.23746
-24.4351754936 1.23068
-23.9365047964 1.22238
-23.437833835 1.21971
-22.9391626093 1.24144
-22.4404911193 1.27715
-21.941819365 1.2719
-21.4431473463 1.2292
-20.9444750633 1.17839
-20.4458025158 1.10259
-19.9471297039 1.01597
-19.4484566275 0.928628
-18.9497832866 0.862872
-18.4511096811 0.848353
-17.952435811 0.876492
-17.4537616763 0.8917
-16.955087277 0.885691
-16.456412613 0.864739
-15.9577376843 0.836062
-15.4590624908 0.803012
-14.9603870326 0.779689
-14.4617113095 0.757547
-13.9630353216 0.73502
-13.4643590688 0.728305
-12.9656825511 0.744847
-12.4670057684 0.729967
-11.9683287208 0.680826
-11.4696514082 0.653177
-10.9709738305 0.635697
-10.4722959877 0.556785
-9.97361787989 0.461037
-9.47493950689 0.433571
-8.97626086872 0.407173
-8.47758196535 0.377401
-7.97890279674 0.330145
-7.48022336285 0.28004
-6.98154366367 0.266105
-6.48286369915 0.249895
-5.98418346926 0.228811
-5.48550297396 0.213964
-4.98682221324 0.23859
-4.48814118705 0.246549
-3.98945989536 0.222092
-3.49077833814 0.185095
-2.99209651536 0.170289
-2.49341442698 0.145583
-1.99473207297 0.12699
-1.4960494533 0.1032
-0.997366567939 0.0803394
-0.498683416849 0.070401
0 0.0672807
0.498683682639 0.0493145
0.997367631103 0.029343
1.49605184542 0
1.99473632563 0.0141026
2.49342107176 0.0331983
2.99210608385 0.0132924
3.49079136192 0.0481825
3.989476906 0.165479
4.48816271614 0.325412
4.98684879237 0.49598
5.48553513471 0.622459
5.9842217432 0.699447
6.48290861786 0.758655
6.98159575875 0.921221
7.48028316588 1.00957
7.97897083928 1.01332
8.477658779 1.03328
8.97634698506 1.14344
9.47503545749 1.29623
9.97372419634 1.4365
10.4724132016 1.50341
10.9711024734 1.57021
11.4697920116 1.62596
11.9684818164 1.47437
12.4671718878 1.32152
12.9658622258 1.26061
13.4645528304 1.28654
13.9632437016 1.27553
14.4619348396 1.21197
14.9606262443 1.20089
15.4593179158 1.26394
15.958009854 1.31538
16.4567020591 1.35494
16.9553945311 1.36006
17.4540872699 1.34096
17.9527802757 1.30477
18.4514735484 1.25798
18.9501670881 1.21149
19.4488608948 1.16051
19.9475549686 1.13775
20.4462493095 1.15371
20.9449439175 1.16393
21.4436387927 1.18125
21.942333935 1.20899
22.4410293445 1.25394
22.9397250213 1.2586
23.4384209654 1.1881
23.9371171768 1.12795
24.4358136555 1.10266
24.9345104016 1.07404
