-24.9332261724 0.804412
-24.4345681527 0.816116
-23.9359098681 0.8217
-23.4372513185 0.810502
-22.938592504 0.810425
-22.4399334244 0.827645
-21.9412740797 0.798776
-21.44261447 0.754238
-20.9439545951 0.69783
-20.4452944551 0.667998
-19.9466340498 0.64623
-19.4479733793 0.637581
-18.9493124436 0.636669
-18.4506512426 0.635667
-17.9519897762 0.627743
-17.4533280445 0.62057
-16.9546660474 0.61291
-16.4560037848 0.605602
-15.9573412568 0.598103
-15.4586784633 0.584478
-14.9600154043 0.582223
-14.4613520797 0.606858
-13.9626884895 0.636191
-13.4640246337 0.64431
-12.9653605123 0.645087
-12.4666961251 0.619443
-11.9680314722 0.574583
-11.4693665536 0.53738
-10.9707013692 0.493235
-10.4720359189 0.465161
-9.97337020279 0.435855
-9.47470422079 0.429101
-8.97603797287 0.41131
-8.47737145899 0.377966
-7.97870467913 0.334546
-7.48003763324 0.300025
-6.9813703213 0.264448
-6.48270274327 0.236421
-5.98403489912 0.209907
-5.48536678882 0.192826
-4.98669841233 0.235967
-4.48802976962 0.31833
-3.98936086066 0.385719
-3.49069168542 0.388113
-2.99202224386 0.379572
-2.49335253595 0.363138
-1.99468256166 0.343099
-1.49601232095 0.318634
-0.997341813793 0.279854
-0.498671040153 0.226319
0 0.163601
0.498671306701 0.12247
0.99734287998 0.0863432
1.49601471987 0.0462371
1.99468682641 0.0131067
2.49335919963 0
2.99203183956 0.000899716
3.49070474623 0.00246736
3.98937791968 0.0111846
4.48805135994 0.0285587
4.98672506704 0.0667487
5.48539904101 0.135664
5.98407328189 0.216547
6.48274778972 0.322329
6.98142256451 0.414918
7.48009760631 0.518666
7.97877291515 0.646558
8.47744849107 0.763028
8.97612433408 0.850536
9.47480044423 0.935906
9.97347682156 0.904097
10.4721534661 0.876852
10.9708303778 0.858486
11.4695075569 0.83239
11.9681850032 0.841603
12.4668627168 0.878337
12.9655406979 0.919498
13.4642189463 0.940261
13.9628974621 0.862135
14.4615762455 0.780092
14.9602552963 0.784337
15.4589346146 0.799266
15.9576142005 0.836978
16.456294054 0.863453
16.9549741751 0.86997
17.4536545639 0.868068
17.9523352204 0.871743
18.4510161446 0.885456
18.9496973365 0.889205
19.4483787963 0.843529
19.9470605238 0.783249
20.4457425192 0.741761
20.9444247825 0.716325
21.4431073138 0.675289
21.9417901129 0.652612
22.4404731801 0.633466
22.9391565153 0.618354
23.4378401185 0.606288
23.9365239898 0.595484
24.4352081292 0.598338
24.9338925368 0.623372
