-24.9294970262 0.932564
-24.4309137116 0.924411
-23.932330127 0.9115
-23.4337462726 0.904127
-22.9351621481 0.902096
-22.4365777537 0.900662
-21.9379930893 0.901121
-21.4394081548 0.897294
-20.9408229502 0.891845
-20.4422374755 0.886824
-19.9436517306 0.880564
-19.4450657155 0.871833
-18.9464794302 0.862226
-18.4478928746 0.852192
-17.9493060487 0.835372
-17.4507189525 0.819648
-16.9521315859 0.808859
-16.4535439489 0.794085
-15.9549560414 0.782685
-15.4563678635 0.777906
-14.957779415 0.774028
-14.459190696 0.766758
-13.9606017064 0.745722
-13.4620124462 0.717389
-12.9634229154 0.712868
-12.4648331138 0.728893
-11.9662430416 0.712539
-11.4676526985 0.679713
-10.9690620847 0.634437
-10.4704712001 0.616509
-9.97188004457 0.608739
-9.47328861817 0.608007
-8.97469692083 0.57981
-8.47610495253 0.550107
-7.97751271323 0.544217
-7.4789202029 0.532393
-6.98032742149 0.500536
-6.48173436898 0.476263
-5.98314104533 0.46331
-5.48454745051 0.429678
-4.98595358447 0.384756
-4.4873594472 0.352597
-3.98876503864 0.315552
-3.49017035877 0.271549
-2.99157540755 0.226598
-2.49298018495 0.189253
-1.99438469094 0.164899
-1.49578892547 0.15646
-0.997192888511 0.0939085
-0.498596580033 0.0526206
0 0.0502959
0.498596851624 0.0433089
0.997193974873 0.029871
1.49579136978 0.014291
1.99438903639 0.00232861
2.49298697472 0
2.99158518482 0.00236863
3.49018366671 0.00319927
3.98878242044 0.00777949
4.48738144603 0.0214351
4.98598074353 0.108714
5.48458031296 0.206747
5.98318015437 0.301273
6.48178026778 0.398946
6.98038065323 0.53238
7.47898131076 0.735415
7.97758224039 0.967781
8.47618344217 1.15108
8.97478491613 1.31279
9.4733866623 1.35206
9.97198868072 1.36335
10.4705909714 1.2623
10.9691935344 1.16964
11.4677963698 1.11246
11.9663994776 1.09597
12.4650028577 1.09925
12.9636065104 1.06004
13.4622104355 1.03386
13.9608146331 1.01991
14.4594191033 1.00552
14.9580238461 0.983916
15.4566288615 0.980466
15.9552341496 0.969864
16.4538397104 0.950505
16.9524455439 0.935568
17.4510516501 0.922385
17.9496580292 0.910307
18.4482646811 0.903169
18.9468716059 0.902088
19.4454788035 0.894268
19.9440862742 0.869713
20.4426940177 0.869814
20.9413020343 0.868092
21.4399103239 0.877492
21.9385188866 0.875312
22.4371277224 0.881699
22.9357368314 0.874401
23.4343462135 0.910062
23.9329558688 0.918579
24.4315657974 0.936736
24.9301759993 0.954946
