-24.9378558955 0.900712
-24.4391051101 0.877568
-23.9403540667 0.896313
-23.4416027653 0.942038
-22.9428512059 0.920177
-22.4440993884 0.889733
-21.9453473128 0.851009
-21.446594979 0.823517
-20.9478423871 0.82062
-20.4490895371 0.823793
-19.9503364287 0.820275
-19.4515830622 0.797086
-18.9528294373 0.768403
-18.4540755541 0.72226
-17.9553214126 0.715857
-17.4565670127 0.695742
-16.9578123544 0.658925
-16.4590574377 0.63368
-15.9603022625 0.598567
-15.4615468288 0.521964
-14.9627911365 0.470671
-14.4640351857 0.433082
-13.9652789763 0.422506
-13.4665225083 0.403215
-12.9677657816 0.389834
-12.4690087963 0.395715
-11.9702515522 0.422596
-11.4714940494 0.414928
-10.9727362878 0.360145
-10.4739782674 0.312502
-9.97521998811 0.293308
-9.47646145 0.236851
-8.97770265299 0.158564
-8.47894359704 0.109709
-7.98018428214 0.0738238
-7.48142470824 0.037314
-6.98266487532 0.02167
-6.48390478335 0.0206712
-5.9851444323 0.0196497
-5.48638382213 0.00491648
-4.98762295282 0.0101614
-4.48886182433 0.024265
-3.99010043663 0.0252418
-3.4913387897 0.0334881
-2.99257688351 0.0413113
-2.49381471801 0.0474691
-1.99505229319 0.0522597
-1.496289609 0.0581104
-0.997526665433 0.0644277
-0.498763462442 0.0611763
0 0.0550871
0.498763721922 0.0409542
0.997527703357 0.0287082
1.49629194433 0.0300205
1.99505644488 0.0210903
2.49382120503 0.0201812
2.99258622482 0.0151222
3.49135150427 0.00320964
3.99011704341 0
4.48888284228 0.00823023
4.9876489009 0.0182257
5.48641521932 0.0308677
5.98518179754 0.0409542
6.48394863562 0.0564981
6.98271573357 0.100131
7.48148309143 0.140588
7.98025070922 0.209609
8.47901858699 0.298092
8.97778672475 0.456198
9.47655512255 0.604038
9.9753237804 0.767403
10.4740926983 0.84811
10.9728618764 0.891784
11.4716313146 0.945341
11.970401013 1.0162
12.4691709716 0.980884
12.9679411905 0.931314
13.4667116696 0.989409
13.965482409 1.05917
14.4642534088 1.10969
14.9630246689 1.10715
15.4617961895 1.07982
15.9605679704 1.07257
16.4593400118 1.05373
16.9581123137 1.02961
17.4568848761 0.991777
17.955657699 0.947387
18.4544307826 0.9302
18.9532041267 0.966214
19.4519777315 1.01858
19.9507515969 1.0234
20.449525723 1.04622
20.9483001099 1.05763
21.4470747575 1.06095
21.9458496659 1.02205
22.4446248351 0.95908
22.9434002652 0.922934
23.4421759561 0.930131
23.940951908 0.952229
24.4397281208 0.959161
24.9385045946 0.967184
