-24.9295526677 0.727555
-24.4309682497 0.716772
-23.9323835615 0.697747
-23.4337986029 0.697889
-22.935213374 0.699439
-22.4366278747 0.710711
-21.938042105 0.711898
-21.4394560648 0.705788
-20.9408697542 0.704746
-20.442283173 0.711108
-19.9436963213 0.721861
-19.445109199 0.724966
-18.9465218061 0.72266
-18.4479341425 0.751582
-17.9493462082 0.759907
-17.4507580032 0.727095
-16.9521695275 0.68659
-16.4535807809 0.649133
-15.9549917635 0.645065
-15.4564024753 0.599318
-14.9578129161 0.551385
-14.459223086 0.532908
-13.960632985 0.54387
-13.4620426129 0.576762
-12.9634519698 0.610521
-12.4648610556 0.574554
-11.9662698703 0.511273
-11.4676784139 0.458108
-10.9690866863 0.40267
-10.4704946874 0.324907
-9.97190241734 0.249793
-9.47330987598 0.207331
-8.9747170633 0.181851
-8.47612397926 0.183071
-7.97753062384 0.175081
-7.47893699699 0.151096
-6.98034309869 0.135396
-6.4817489289 0.121185
-5.98315448757 0.11122
-5.48455977469 0.100463
-4.98596479021 0.105376
-4.4873695341 0.184293
-3.98877400632 0.193352
-3.49017820685 0.176303
-2.99158213564 0.165009
-2.49298579266 0.152444
-1.99438917787 0.140114
-1.49579229125 0.114436
-0.997195132752 0.0951239
-0.498597702348 0.0840474
0 0.0764244
0.498597974324 0.0712463
0.997196220661 0.0649977
1.49579473904 0.0488518
1.99439352951 0.0324027
2.49299259209 0.0153028
2.99159192682 0.0114608
3.49019153373 0.0193063
3.98879141287 0.0434345
4.48739156425 0.0860651
4.98599198793 0.0875578
5.48459268393 0.0569875
5.98319365229 0.0273109
6.48179489303 0
6.98039640621 0.00781243
7.47899819185 0.032549
7.97760024998 0.0916298
8.47620258064 0.257081
8.97480518387 0.410748
9.47340805969 0.537558
9.97201120815 0.662422
10.4706146293 0.738917
10.9692183231 0.780472
11.4678222897 0.789951
11.966426529 0.804731
12.4650310412 0.884661
12.9636358262 0.956332
13.462240884 1.01032
13.9608462148 1.14455
14.4594518185 1.31701
14.9580576952 1.4698
15.4566638449 1.64646
15.9552702676 1.79727
16.4538769635 1.88389
16.9524839324 1.93136
17.4510911745 1.91356
17.9496986898 1.84622
18.4483064783 1.78545
18.9469145401 1.70428
19.4455228751 1.61814
19.9441314835 1.5844
20.4427403652 1.56611
20.9413495203 1.56469
21.4399589488 1.55449
21.9385686508 1.54811
22.4371786263 1.47995
22.9357888753 1.45713
23.4343993979 1.46599
23.9330101941 1.42042
24.4316212639 1.38936
24.9302326074 1.39771
