-24.929555238 0.83831
-24.430970769 0.845092
-23.9323860298 0.843657
-23.4338010202 0.837607
-22.9352157402 0.829998
-22.4366301899 0.825523
-21.9380443691 0.822677
-21.4394582779 0.819511
-20.9408719161 0.784378
-20.4422852838 0.7449
-19.943698381 0.713387
-19.4451112075 0.697581
-18.9465237634 0.688239
-18.4479360487 0.683507
-17.9493480632 0.686909
-17.450759807 0.694935
-16.95217128 0.695555
-16.4535824821 0.680347
-15.9549934135 0.654102
-15.4564040739 0.62865
-14.9578144635 0.606943
-14.459224582 0.589825
-13.9606344296 0.583523
-13.4620440062 0.581331
-12.9634533117 0.574838
-12.4648623461 0.557239
-11.9662711094 0.529747
-11.4676796016 0.486925
-10.9690878225 0.458769
-10.4704957722 0.444138
-9.97190345063 0.441393
-9.47331085776 0.4461
-8.97471799356 0.464284
-8.47612485799 0.493445
-7.97753145102 0.502174
-7.4789377726 0.499008
-6.98034382271 0.53243
-6.48174960131 0.548251
-5.98315510837 0.453591
-5.48456034385 0.430173
-4.98596530771 0.383742
-4.48736999993 0.300194
-3.98877442046 0.241085
-3.49017856928 0.198569
-2.99158244634 0.230674
-2.49298605162 0.218096
-1.99438938508 0.183858
-1.49579244668 0.138928
-0.99719523639 0.11404
-0.498597754175 0.103739
0 0.0965683
0.49859802617 0.0843853
0.997196324368 0.072995
1.49579489463 0.066031
1.99439373699 0.0598479
2.49299285148 0.050148
2.99159223814 0.031429
3.490191897 0.0121857
3.9887918281 0.00452617
4.48739203147 0.00275507
4.98599250715 0.0020276
5.48459325516 0.0048845
5.98319427555 0.00905094
6.48179556835 0.00951271
6.9803971336 0.00117838
7.47899897132 0
7.97760108155 0.0161116
8.47620346433 0.0466052
8.9748061197 0.0812213
9.47340904768 0.134755
9.97201224831 0.248181
10.4706157216 0.380799
10.9692194677 0.461135
11.4678234865 0.523594
11.966427778 0.617791
12.4650323424 0.775905
12.9636371797 0.909373
13.4622422898 1.0435
13.9608476729 1.19237
14.459453329 1.31766
14.958059258 1.39413
15.4566654601 1.42101
15.9552719352 1.41365
16.4538786834 1.38741
16.9524857048 1.36696
17.4510929993 1.35045
17.949700567 1.32396
18.448308408 1.28197
18.9469165222 1.21526
19.4455249098 1.17798
19.9441335706 1.20995
20.4427425049 1.18998
20.9413517126 1.04715
21.4399611937 0.95049
21.9385709482 0.939167
22.4371809763 0.927738
22.935791278 0.908645
23.4344018532 0.918231
23.933012702 0.89775
24.4316238245 0.871559
24.9302352206 0.907601
