-24.9338277336 0.989979
-24.4351576615 0.946026
-23.9364873254 0.911495
-23.4378167251 0.888253
-22.9391458607 0.87772
-22.4404747322 0.888178
-21.9418033394 0.903271
-21.4431316824 0.927722
-20.9444597611 0.95105
-20.4457875756 0.935385
-19.9471151257 0.845667
-19.4484424114 0.74214
-18.9497694327 0.716131
-18.4510961896 0.726474
-17.9524226821 0.736427
-17.45374891 0.76396
-16.9550748734 0.74493
-16.4564005723 0.706855
-15.9577260065 0.690768
-15.4590511761 0.653248
-14.9603760811 0.602365
-14.4617007213 0.604273
-13.9630250969 0.596974
-13.4643492076 0.575999
-12.9656730536 0.543615
-12.4669966348 0.503228
-11.9683199511 0.500513
-11.4696430025 0.517139
-10.970965789 0.479305
-10.4722883105 0.441663
-9.97361056703 0.456781
-9.47493255855 0.489459
-8.97625428502 0.526666
-8.47757574639 0.565395
-7.97889694265 0.557019
-7.48021787376 0.547339
-6.98153853968 0.524455
-6.48285894039 0.466488
-5.98417907584 0.435372
-5.48549894602 0.452953
-4.98681855088 0.422463
-4.48813789039 0.383187
-3.98945696452 0.308905
-3.49077577324 0.264542
-2.99209431652 0.24727
-2.49341259432 0.218188
-1.9947306066 0.173499
-1.49604835335 0.119532
-0.997365834516 0.0525639
-0.498683050078 0.0216907
0 0.0236493
0.498683315751 0.0492135
0.997366897208 0.070218
1.4960507444 0.0565847
1.99473485737 0.0301888
2.49341923613 0
2.99210388074 0.000898776
3.49078879121 0.0739516
3.98947396758 0.129052
4.48815940988 0.166454
4.98684511815 0.235561
5.48553109241 0.337603
5.98421733271 0.432247
6.48290383907 0.503377
6.98159061152 0.523222
7.4802776501 0.587906
7.97896495484 0.702649
8.47765252577 0.812284
8.97634036293 0.745027
9.47502846634 0.786477
9.97371683605 0.851964
10.4724054721 0.918024
10.9710943745 0.943143
11.4697835432 0.925004
11.9684729784 0.814879
12.46716268 0.689487
12.9658526482 0.608906
13.4645428828 0.618356
13.963233384 0.636596
14.4619241517 0.689323
14.9606151861 0.761898
15.4593064871 0.843474
15.9579980548 0.935588
16.4566898892 1.00792
16.9553819904 1.0581
17.4540743583 1.06507
17.9527669931 1.0522
18.4514598946 0.980291
18.9501530631 0.913575
19.4488464984 0.871927
19.9475402007 0.840377
20.44623417 0.857684
20.9449284062 0.874513
21.4436229095 0.921329
21.9423176798 0.953223
22.4410127173 1.01506
22.9397080219 1.11384
23.4384035936 1.20777
23.9370994325 1.29019
24.4357955387 1.32087
24.9344919121 1.32279
