-24.9296952764 0.728822
-24.4311080074 0.731065
-23.9325204681 0.736779
-23.4339326584 0.735836
-22.9353445784 0.745094
-22.4367562279 0.743681
-21.9381676069 0.743188
-21.4395787155 0.741556
-20.9409895535 0.727688
-20.4424001209 0.727019
-19.9438104178 0.722861
-19.445220444 0.70403
-18.9466301996 0.681299
-18.4480396844 0.672304
-17.9494488985 0.650442
-17.4508578418 0.634694
-16.9522665143 0.62035
-16.453674916 0.587431
-15.9550830468 0.529024
-15.4564909067 0.490307
-14.9578984956 0.468263
-14.4593058135 0.462725
-13.9607128605 0.443012
-13.4621196363 0.415671
-12.9635261411 0.398242
-12.4649323748 0.375238
-11.9663383373 0.379459
-11.4677440286 0.36447
-10.9691494487 0.313714
-10.4705545975 0.243579
-9.97195947501 0.178259
-9.47336408121 0.133974
-8.97476841604 0.111487
-8.47617247947 0.080602
-7.97757627146 0.052403
-7.47897979199 0.0303258
-6.98038304101 0.00852115
-6.48178601849 0.0177656
-5.9831887244 0.0353367
-5.4845911587 0.0411183
-4.98599332136 0.0328354
-4.48739521235 0.0532557
-3.98879683162 0.0877452
-3.49019817914 0.12336
-2.99159925488 0.119924
-2.49300005881 0.131895
-1.99440059089 0.167419
-1.49580085108 0.222246
-0.99720083935 0.2641
-0.49860055567 0.295981
0 0.289677
0.498600827692 0.219238
0.997201927442 0.108264
1.49580329928 0.0231647
1.99440494325 0.00996618
2.49300685938 0.0133571
2.99160904771 0.00177562
3.49021150826 0
3.98881424108 0.00877969
4.4874172462 0.00824816
4.98602052365 0.00820564
5.48462407347 0.153417
5.98322789569 0.3219
6.48183199035 0.44733
6.98043635748 0.585839
7.47904099712 0.659935
7.9776459093 0.726876
8.47625109405 0.768748
8.97485655141 0.789303
9.47346228142 0.841954
9.9720682841 0.916416
10.4706745595 0.99522
10.9692811076 1.056
11.4678879286 1.07399
11.9664950223 1.05178
12.4651023889 1.01928
12.9637100284 0.974587
13.4623179408 0.945551
13.9609261261 0.960171
14.4595345844 1.00003
14.9581433158 1.02655
15.4567523202 1.03177
15.9553615977 0.958513
16.4539711483 0.908967
16.9525809721 0.907459
17.4511910691 0.893537
17.9498014393 0.885425
18.4484120828 0.845433
18.9470229995 0.805943
19.4456341896 0.79465
19.9442456531 0.745496
20.4428573899 0.697144
20.9414694002 0.656683
21.440081684 0.622148
21.9386942413 0.596074
22.4373070721 0.581747
22.9359201764 0.570386
23.4345335544 0.535357
23.933147206 0.514351
24.4317611313 0.515145
24.9303753303 0.520644
