-24.9407487934 0.857401
-24.4419400323 0.857905
-23.9431310179 0.845957
-23.4443217503 0.829036
-22.9455122294 0.829981
-22.4467024553 0.827034
-21.9478924278 0.798698
-21.4490821471 0.731035
-20.9502716129 0.713272
-20.4514608254 0.711384
-19.9526497844 0.713084
-19.45383849 0.709558
-18.9550269421 0.705434
-18.4562151407 0.707252
-17.9574030857 0.697372
-17.4585907772 0.682338
-16.959778215 0.671135
-16.4609653993 0.652235
-15.9621523298 0.649595
-15.4633390067 0.640862
-14.9645254299 0.613529
-14.4657115993 0.592846
-13.9668975149 0.577041
-13.4680831767 0.545783
-12.9692685847 0.483457
-12.4704537388 0.377885
-11.9716386391 0.312482
-11.4728232854 0.297239
-10.9740076777 0.295418
-10.4751918161 0.264773
-9.97637570044 0.248689
-9.47755933076 0.221791
-8.978742707 0.190588
-8.47992582914 0.162292
-7.98110869716 0.126758
-7.48229131101 0.103542
-6.98347367068 0.0919898
-6.48465577613 0.072304
-5.98583762734 0.0626687
-5.48701922427 0.0524191
-4.98820056689 0.0359257
-4.48938165518 0.0269951
-3.99056248912 0.0296613
-3.49174306865 0.0328991
-2.99292339377 0.0058776
-2.49410346444 0
-1.99528328063 0.00235738
-1.49646284231 0.0127256
-0.997642149446 0.0224734
-0.498821202022 0.0265313
0 0.0350893
0.498821456646 0.0640339
0.997643167945 0.0807511
1.49646513393 0.0824116
1.99528735462 0.0790165
2.49410983006 0.0731906
2.99293256027 0.0645454
3.49175554527 0.0634342
3.99057878511 0.0723346
4.4894022798 0.0695963
4.98822602938 0.0544296
5.48705003388 0.0669689
5.98587429332 0.0885035
6.48469880773 0.0800128
6.98352357715 0.06952
7.4823486016 0.0618379
7.98117388111 0.0510664
8.47999941571 0.0419283
8.97882520543 0.0396631
9.4776512503 0.0366861
9.97647755034 0.0448902
10.4753041056 0.0609451
10.9741309161 0.14649
11.4729579818 0.231574
11.9717853029 0.277959
12.4706128792 0.365672
12.9694407109 0.451568
13.468268798 0.526469
13.9670971405 0.539844
14.4659257385 0.581273
14.9647545919 0.651114
15.4635837008 0.73449
15.9624130652 0.827365
16.4612426852 0.891302
16.9600725608 0.972074
17.458902692 1.03192
17.9577330788 1.07215
18.4565637213 1.10529
18.9553946194 1.11378
19.4542257734 1.04661
19.953057183 0.996374
20.4518888485 1.0608
20.9507207697 1.09576
21.4495529468 1.11602
21.9483853798 1.12502
22.4472180687 1.12233
22.9460510135 1.09332
23.4448842143 1.0578
23.943717671 1.02662
24.4425513838 0.993213
24.9413853526 0.968863
