-24.9297822813 0.883561
-24.4311932614 0.866783
-23.9326039716 0.816971
-23.4340144119 0.773784
-22.9354245823 0.781303
-22.4368344826 0.776207
-21.938244113 0.721449
-21.4396534733 0.651228
-20.9410625635 0.601742
-20.4424713835 0.560383
-19.9438799335 0.522981
-19.4452882132 0.512455
-18.9466962227 0.515645
-18.4481039619 0.519308
-17.9495114308 0.516621
-17.4509186294 0.513026
-16.9523255576 0.492644
-16.4537322154 0.465091
-15.9551386028 0.449121
-15.4565447197 0.402318
-14.9579505661 0.353833
-14.459356142 0.317229
-13.9607614472 0.288736
-13.4621664819 0.283061
-12.9635712459 0.26442
-12.4649757393 0.230945
-11.9663799619 0.212218
-11.4677839137 0.193483
-10.9691875948 0.192608
-10.4705910051 0.19583
-9.97199414451 0.199327
-9.47339701303 0.203093
-8.97479961063 0.206488
-8.47620193727 0.192316
-7.97760399292 0.148574
-7.47900577754 0.107225
-6.98040729109 0.0673876
-6.48180853355 0.0432376
-5.98320950488 0.0320596
-5.48461020504 0.0252466
-4.98601063401 0.0229895
-4.48741079173 0.0234023
-3.98881067819 0.0242994
-3.49021029335 0.0203654
-2.99160963716 0.00950049
-2.4930087096 0
-1.99440751063 0.000638554
-1.49580604023 0.0104056
-0.997204298341 0.0148812
-0.498602284943 0.00840028
0 0.00574765
0.498602556523 0.0328453
0.997205384661 0.0951707
1.49580848445 0.144821
1.99441185592 0.202432
2.49301549911 0.237442
2.99161941405 0.229619
3.49022360078 0.215273
3.98882805934 0.235659
4.48743278974 0.225956
4.98603779204 0.158789
5.48464306627 0.105316
5.98324861245 0.069853
6.48185443063 0.051362
6.98046052083 0.0447364
7.4790668831 0.0468505
7.97767351746 0.0483676
8.47628042396 0.0520672
8.97488760262 0.0745677
9.47349505349 0.104097
9.97210277658 0.158653
10.4707107719 0.246813
10.9693190396 0.432193
11.4679275796 0.577082
11.966536392 0.62928
12.4651454768 0.66683
12.963754834 0.813899
13.4623644637 0.90101
13.9609743659 0.932078
14.4595845407 1.01796
14.958194988 1.08202
15.456805708 1.13647
15.9554167006 1.09739
16.4540279658 1.10287
16.9526395038 1.15137
17.4512513146 1.15593
17.9498633981 1.08908
18.4484757544 1.05545
18.9470883836 1.03887
19.4457012857 1.00618
19.9443144607 0.968326
20.4429279086 0.994656
20.9415416296 1.03193
21.4401556236 1.03793
21.9387698906 1.03975
22.4373844307 1.05988
22.9359992439 1.06548
23.4346143304 1.05412
23.9332296899 1.03266
24.4318453228 1.01862
24.9304612289 1.02004
