-24.9294833197 1.29938
-24.4309002928 1.15283
-23.9323169955 1.13556
-23.4337334277 1.09537
-22.9351495894 1.04695
-22.4365654805 1.00921
-21.937981101 0.972165
-21.439396451 0.951562
-20.9408115302 0.928894
-20.4422263388 0.924341
-19.9436408767 0.894622
-19.4450551438 0.817118
-18.9464691401 0.738898
-18.4478828656 0.671389
-17.9492963203 0.587015
-17.450709504 0.563232
-16.9521224168 0.607392
-16.4535350587 0.6017
-15.9549474295 0.569219
-15.4563595293 0.565071
-14.9577713581 0.575309
-14.4591829157 0.576666
-13.9605942022 0.571038
-13.4620052175 0.558226
-12.9634159616 0.538541
-12.4648264345 0.518829
-11.9662366361 0.495601
-11.4676465663 0.481747
-10.9690562253 0.48388
-10.4704656128 0.478312
-9.97187472893 0.460434
-9.4732835736 0.441881
-8.97469214678 0.423722
-8.47610044844 0.40183
-7.97750847854 0.389983
-7.47891623705 0.372178
-6.98032372393 0.343736
-6.48173093915 0.307226
-5.98313788267 0.285157
-5.48454455446 0.262907
-4.98595095449 0.27839
-4.48735708272 0.344383
-3.98876293911 0.377076
-3.49016852363 0.351187
-2.99157383624 0.294671
-2.49297887692 0.228558
-1.99438364562 0.119637
-1.49578814232 0.0478882
-0.997192366968 0.0271894
-0.49859631954 0.0147046
0 0.00814341
0.498596591687 0.00826884
0.997193455556 0
1.49579059164 0.0095823
1.99438799998 0.0580071
2.4929856806 0.0995433
2.99158363355 0.134791
3.49018185884 0.170487
3.98878035653 0.21467
4.48737912664 0.209555
4.98597816921 0.205765
5.48457748428 0.200546
5.98317707187 0.20182
6.48177693203 0.204867
6.98037706478 0.222899
7.47897747016 0.294308
7.97757814821 0.385451
8.47617909896 0.509309
8.97478032245 0.64118
9.47338181871 0.718878
9.97198358777 0.774987
10.4705856297 0.808486
10.9691879444 0.8418
11.4677905321 0.869323
11.9663933927 0.880351
12.4649965263 0.894854
12.963599933 0.90791
13.4622036126 0.928512
13.9608075653 0.944701
14.4594117912 0.946622
14.9580162902 0.925645
15.4566210624 0.895241
15.9552261078 0.866084
16.4538314264 0.860647
16.9524370184 0.880619
17.4510428837 0.862689
17.9496490223 0.828353
18.4482554343 0.781084
18.9468621197 0.73379
19.4454690786 0.717912
19.944076311 0.710354
20.4426838169 0.760683
20.9412915964 0.825044
21.4398996495 0.769814
21.9385079762 0.584836
22.4371165765 0.454927
22.9357254506 0.348196
23.4343345984 0.302099
23.93294402 0.287721
24.4315537154 0.301611
24.9301636846 0.360296
