-24.929562855 0.77974
-24.430978235 0.764422
-23.9323933446 0.75459
-23.4338081838 0.728427
-22.9352227526 0.677454
-22.4366370509 0.641272
-21.9380510788 0.618362
-21.4394648362 0.608483
-20.940878323 0.603128
-20.4422915392 0.595682
-19.9437044848 0.587522
-19.4451171597 0.578014
-18.946529564 0.56969
-18.4479416975 0.561442
-17.9493535603 0.553854
-17.4507651523 0.518106
-16.9521764734 0.48271
-16.4535875237 0.466796
-15.9549983031 0.465519
-15.4564088115 0.45405
-14.957819049 0.436383
-14.4592290154 0.413294
-13.9606387109 0.41709
-13.4620481352 0.430339
-12.9634572885 0.448366
-12.4648661706 0.453662
-11.9662747815 0.442532
-11.4676831212 0.421438
-10.9690911897 0.394155
-10.4704989869 0.374569
-9.97190651273 0.366994
-9.47331376724 0.353655
-8.97472075037 0.339459
-8.47612746208 0.32542
-7.97753390233 0.298764
-7.47894007109 0.281621
-6.98034596832 0.269183
-6.48175159399 0.261636
-5.98315694807 0.238596
-5.48456203052 0.262949
-4.98596684131 0.254355
-4.48737138039 0.264893
-3.98877564775 0.286105
-3.49017964333 0.177787
-2.99158336711 0.133913
-2.49298681906 0.0965467
-1.99438999913 0.116412
-1.49579290729 0.1006
-0.997195543516 0.0882999
-0.498597907763 0.0752196
0 0.0748727
0.498598179809 0.0627735
0.997196631698 0.0371713
1.4957953557 0.0241655
1.99439435185 0.0243364
2.49299362019 0.014685
2.99159316074 0.00344752
3.49019297355 0.00106205
3.98879305864 0.00240417
4.48739341606 0
4.98599404583 0.00249271
5.484594948 0.0157599
5.98319612259 0.0953295
6.48179756964 0.277883
6.98039928918 0.521197
7.47900128125 0.800223
7.97760354589 1.05933
8.47620608313 1.23361
8.97480889299 1.27724
9.47341197553 1.30612
9.97201533077 1.32371
10.4706189587 1.35404
10.9692228595 1.37351
11.467827033 1.39595
11.9664314794 1.45286
12.4650361987 1.4792
12.9636411909 1.45647
13.462246456 1.38703
13.9608519941 1.34382
14.4594578052 1.33282
14.9580638893 1.34564
15.4566702465 1.35641
15.9552768769 1.36575
16.4538837804 1.33804
16.952490957 1.28875
17.4510984069 1.22102
17.9497061301 1.16582
18.4483141265 1.14312
18.9469223963 1.12262
19.4455309394 1.10206
19.9441397559 1.0743
20.4427488458 1.04371
20.9413582092 1.01559
21.4399678461 1.00161
21.9385777565 0.996832
22.4371879404 0.987067
22.935798398 0.965992
23.4344091292 0.944804
23.933020134 0.919654
24.4316314126 0.916423
24.9302429649 0.889832
