-24.9315519915 0.84368
-24.4329275171 0.83298
-23.9343027753 0.80993
-23.4356777659 0.762769
-22.9370524891 0.726315
-22.4384269447 0.697772
-21.9398011328 0.69631
-21.4411750533 0.711312
-20.9425487061 0.718213
-20.4439220913 0.723339
-19.9452952087 0.714715
-19.4466680584 0.702709
-18.9480406404 0.698687
-18.4494129545 0.696729
-17.9507850008 0.68887
-17.4521567792 0.663339
-16.9535282897 0.64855
-16.4548995323 0.624264
-15.9562705068 0.596042
-15.4576412134 0.574087
-14.959011652 0.552207
-14.4603818224 0.54943
-13.9617517248 0.540927
-13.463121359 0.535476
-12.964490725 0.533663
-12.4658598228 0.528685
-11.9672286523 0.513873
-11.4685972136 0.472668
-10.9699655066 0.434695
-10.4713335312 0.419667
-9.97270128744 0.401774
-9.47406877526 0.381545
-8.97543599463 0.370728
-8.47680294552 0.347091
-7.97816962789 0.322975
-7.47953604171 0.30434
-6.98090218694 0.297737
-6.48226806356 0.226764
-5.98363367152 0.128838
-5.4849990108 0.153978
-4.98636408136 0.219916
-4.48772888317 0.227473
-3.98909341619 0.256955
-3.49045768039 0.281022
-2.99182167574 0.251473
-2.4931854022 0.233114
-1.99454885974 0.236967
-1.49591204832 0.223213
-0.997274967913 0.196637
-0.498637618484 0.151534
0 0.0966914
0.498637887574 0.0766066
0.997276044271 0.0714384
1.49591447013 0.0565707
1.99455316517 0.0491124
2.49319212944 0.0709768
2.99183136296 0.0951509
3.49047086578 0.0799473
3.98911063792 0.0586923
4.48775067942 0.0472942
4.98639099032 0.0270098
5.48503157063 0
5.98367242041 0.0813289
6.48231353968 0.306129
6.98095492848 0.54347
7.47959658683 0.716949
7.97823851478 0.874821
8.47688071236 0.982029
8.97552317959 1.0526
9.47416591652 1.13426
9.97280892318 1.20163
10.4714521996 1.21805
10.9700957458 1.2198
11.4687395619 1.23086
11.9673836478 1.26038
12.4660280036 1.23032
12.9646726293 1.20677
13.463317525 1.18456
13.9619626906 1.1323
14.4606081264 1.11142
14.9592538321 1.13804
15.457899808 1.13682
15.956546054 1.11592
16.4551925702 1.11975
16.9538393565 1.12436
17.4524864131 1.09318
17.9511337399 1.05454
18.4497813371 1.01974
18.9484292046 0.990225
19.4470773424 0.971936
19.9457257506 0.957441
20.4443744293 0.951071
20.9430233784 0.940914
21.441672598 0.902607
21.9403220882 0.846638
22.4389718489 0.870344
22.9376218802 0.876719
23.4362721821 0.861769
23.9349227547 0.843433
24.433573598 0.816506
24.9322247121 0.799983
