-24.9294842928 1.57532
-24.4309012466 1.55516
-23.9323179299 1.50631
-23.4337343428 1.49374
-22.9351504851 1.47362
-22.4365663569 1.43413
-21.9379819582 1.39685
-21.4393972888 1.35259
-20.9408123487 1.31453
-20.4422271379 1.29374
-19.9436416564 1.27989
-19.4450559042 1.20537
-18.9464698811 1.07859
-18.4478835873 0.842991
-17.9492970225 0.681484
-17.4507101869 0.637998
-16.9521230803 0.695313
-16.4535357027 0.755431
-15.9549480541 0.745339
-15.4563601345 0.775623
-14.9577719438 0.814703
-14.459183482 0.78316
-13.9605947491 0.734856
-13.462005745 0.677258
-12.9634164696 0.620461
-12.464826923 0.579242
-11.9662371052 0.570946
-11.467647016 0.556088
-10.9690566554 0.525771
-10.4704660235 0.489314
-9.9718751201 0.451225
-9.47328394527 0.431726
-8.97469249895 0.426619
-8.4761007811 0.444219
-7.97750879168 0.468135
-7.47891653066 0.459711
-6.98032399802 0.463958
-6.4817311937 0.467459
-5.98313811768 0.419847
-5.48454476993 0.36084
-4.9859511504 0.297662
-4.48735725906 0.307374
-3.98876309589 0.345628
-3.49016866083 0.35598
-2.99157395387 0.342966
-2.49297897495 0.332389
-1.99438372406 0.345969
-1.49578820116 0.315943
-0.997192406201 0.233381
-0.49859633916 0.136456
0 0.0360314
0.498596611314 0
0.997193494816 0.00802178
1.49579065054 0.00829985
1.99438807853 0.00874512
2.4929857788 0.0221993
2.9915837514 0.0499735
3.49018199637 0.130791
3.98878051373 0.237872
4.48737930352 0.329688
4.98597836577 0.428197
5.48457770053 0.498875
5.98317730782 0.594278
6.48177718768 0.71562
6.98037734015 0.815691
7.47897776525 0.875172
7.97757846302 0.966039
8.4761794335 1.02379
8.97478067673 1.044
9.47338219273 1.1057
9.97198398154 1.17233
10.4705860432 1.19885
10.9691883777 1.22068
11.4677909852 1.26332
11.9663938656 1.26261
12.464997019 1.1956
12.9636004454 1.15208
13.4622041448 1.09803
13.9608081174 1.04066
14.459412363 1.00796
14.9580168818 0.957068
15.4566216738 0.906624
15.9552267391 0.834944
16.4538320776 0.770329
16.9524376893 0.745282
17.4510435745 0.697896
17.9496497329 0.663975
18.4482561648 0.624192
18.9468628701 0.605449
19.4454698489 0.518448
19.9440771011 0.450059
20.4426846269 0.39179
20.9412924263 0.376586
21.4399004993 0.366397
21.9385088459 0.352089
22.4371174662 0.364436
22.9357263602 0.371922
23.4343355279 0.365053
23.9329449694 0.368441
24.4315546847 0.361624
24.9301646739 0.35116
