-24.9297895921 0.900552
-24.4312004272 0.907142
-23.9326109923 0.911275
-23.4340212875 0.925292
-22.9354313127 0.945176
-22.4368410679 0.943165
-21.9382505529 0.884854
-21.4396597679 0.81636
-20.9410687128 0.764243
-20.4424773874 0.73809
-19.9438857919 0.73317
-19.4452939261 0.724537
-18.94670179 0.73034
-18.4481093836 0.729761
-17.9495167069 0.705323
-17.4509237598 0.656139
-16.9523305423 0.602838
-16.4537370543 0.551202
-15.9551432958 0.51457
-15.4565492668 0.488353
-14.9579549673 0.449934
-14.4593603971 0.399535
-13.9607655563 0.337011
-13.4621704449 0.291779
-12.9635750628 0.254479
-12.4649794099 0.215984
-11.9663834863 0.180161
-11.4677872919 0.165103
-10.9691908266 0.150511
-10.4705940905 0.120131
-9.9719970835 0.0859409
-9.47339980553 0.0466407
-8.9748022566 0.0277182
-8.47620443665 0.036005
-7.97760634567 0.0272677
-7.47900798361 0.00774526
-6.98040935043 0
-6.48181044612 0.00116469
-5.98321127062 0.0109582
-5.4846118239 0.0150795
-4.98601210594 0.039859
-4.4874121167 0.110751
-3.98881185613 0.101307
-3.49021132421 0.112132
-2.99161052091 0.129988
-2.49300944618 0.142828
-1.99440809999 0.124749
-1.49580648232 0.0902813
-0.997204593118 0.0789956
-0.498602432356 0.0927484
0 0.103987
0.498602703986 0.0960853
0.997205679634 0.0858799
1.49580892698 0.0792546
1.99441244606 0.0742631
2.49301623691 0.0824399
2.99162029956 0.109587
3.49022463404 0.146904
3.9888292404 0.179995
4.48743411866 0.197987
4.98603926886 0.234623
5.48464469103 0.278692
5.98325038521 0.305768
6.48185635144 0.329194
6.98046258974 0.338738
7.47906910015 0.365763
7.97767588271 0.430556
8.47628293745 0.479714
8.9748902644 0.536909
9.4734978636 0.622195
9.97210573509 0.671959
10.4707138789 0.645641
10.969322295 0.607339
11.4679309836 0.565347
11.9665399446 0.496372
12.465149178 0.438673
12.9637586839 0.404644
13.4623684623 0.36403
13.9609785133 0.339426
14.4595888369 0.337502
14.9581994331 0.343117
15.456810302 0.341662
15.9554214435 0.357305
16.4540328578 0.395312
16.9526445449 0.462581
17.4512565047 0.576056
17.9498687374 0.721424
18.448481243 0.879789
18.9470940214 1.02623
19.4457070728 1.12918
19.9443203972 1.18117
20.4429339946 1.19617
20.941547865 1.18859
21.4401620084 1.17696
21.938776425 1.18604
22.4373911147 1.20436
22.9360060776 1.2268
23.4346213137 1.23688
23.9332368231 1.22995
24.4318526057 1.2014
24.9304686617 1.17936
