-24.9297841145 0.308394
-24.4311950582 0.276956
-23.9326057321 0.2908
-23.434016136 0.303254
-22.93542627 0.290787
-22.4368361339 0.284308
-21.9382457278 0.292956
-21.4396550517 0.284513
-20.9410641054 0.270525
-20.442472889 0.269733
-19.9438814025 0.278572
-19.4452896457 0.298188
-18.9466976187 0.303406
-18.4481053214 0.299635
-17.9495127538 0.253205
-17.4509199159 0.251233
-16.9523268075 0.302031
-16.4537334288 0.329519
-15.9551397796 0.29399
-15.4565458599 0.228619
-14.9579516697 0.194705
-14.459357209 0.194296
-13.9607624776 0.196886
-13.4621674756 0.169445
-12.963572203 0.141433
-12.4649766597 0.119006
-11.9663808456 0.110283
-11.4677847608 0.0916633
-10.9691884052 0.0950579
-10.4705917788 0.0896349
-9.97199488147 0.100048
-9.47339771326 0.0904484
-8.97480027412 0.0671116
-8.476202564 0.0700101
-7.97760458288 0.0778894
-7.47900633072 0.0580297
-6.98040780748 0.0455781
-6.48180901313 0.0317168
-5.98320994765 0.0138895
-5.48461061098 0
-4.9860110031 0.04003
-4.48741112397 0.0756427
-3.98881097356 0.133665
-3.49021055184 0.208472
-2.99160985876 0.251288
-2.4930088943 0.268254
-1.99440765842 0.262088
-1.49580615108 0.269821
-0.997204372257 0.290961
-0.498602321907 0.259322
0 0.244619
0.498602593499 0.259689
0.997205458627 0.25421
1.49580859542 0.244863
1.9944120039 0.242899
2.49301568412 0.23585
2.9916196361 0.224203
3.49022385988 0.223952
3.98882835549 0.238125
4.48743312297 0.256411
4.98603816236 0.273125
5.48464347368 0.280704
5.98324905698 0.291553
6.48185491228 0.314394
6.98046103962 0.354372
7.47906743903 0.39422
7.97767411056 0.450339
8.47628105423 0.462062
8.97488827007 0.440791
9.47349575813 0.430714
9.97210351844 0.478283
10.470711551 0.5304
10.9693198559 0.547417
11.4679284332 0.54898
11.9665372828 0.541654
12.4651464049 0.532734
12.9637557994 0.563296
13.4623654664 0.572622
13.9609754059 0.567155
14.459585618 0.582399
14.9581961026 0.672036
15.4568068599 0.771595
15.9554178899 0.877961
16.4540291925 1.00059
16.9526407679 1.13917
17.451252616 1.2556
17.9498647369 1.3242
18.4484771307 1.39514
18.9470897973 1.46328
19.4457027368 1.40098
19.9443159493 1.27588
20.4429294347 1.26709
20.9415431931 1.23285
21.4401572246 1.21724
21.9387715291 1.19303
22.4373861068 1.21299
22.9360009575 1.23247
23.4346160815 1.24083
23.9332314786 1.24492
24.431847149 1.24028
24.9304630927 1.22118
