-24.9295712404 1.06374
-24.4309864611 1.11828
-23.932401411 1.13893
-23.4338160903 1.13018
-22.9352304988 1.11967
-22.4366446365 1.09327
-21.9380585034 1.0449
-21.4394720995 0.971685
-20.9408854246 0.884898
-20.4422984788 0.795165
-19.943711262 0.754229
-19.4451237743 0.794585
-18.9465360155 0.800872
-18.4479479856 0.798159
-17.9493596846 0.82256
-17.4507711125 0.811378
-16.9521822692 0.768446
-16.4535931547 0.746346
-15.955003769 0.72633
-15.456414112 0.712892
-14.9578241836 0.703079
-14.459233984 0.708606
-13.9606435129 0.715448
-13.4620527704 0.707229
-12.9634617565 0.698838
-12.464870471 0.689298
-11.9662789141 0.685763
-11.4676870856 0.69022
-10.9690949855 0.7103
-10.4705026137 0.732128
-9.97190997033 0.742971
-9.47331705524 0.757513
-8.97472386842 0.752396
-8.47613040983 0.767799
-7.97753667944 0.759802
-7.47894267722 0.770091
-6.98034840313 0.784143
-6.48175385713 0.782696
-5.98315903919 0.76297
-5.48456394927 0.69276
-4.98596858735 0.620183
-4.48737295338 0.555557
-3.98877704734 0.481264
-3.49018086918 0.428893
-2.99158441888 0.362047
-2.49298769639 0.333683
-1.99439070168 0.303199
-1.49579343473 0.250872
-0.997195895483 0.16796
-0.498598083919 0.0782965
0 0.0234184
0.49859835631 0.00978983
0.997196985044 0.0034952
1.49579588624 0
1.99439505993 0.00890016
2.49299450614 0.0319598
2.99159422492 0.0714399
3.4901942163 0.119299
3.98879448031 0.149539
4.48739501698 0.24317
4.98599582636 0.278
5.48459690847 0.157509
5.98319826335 0.053987
6.48179989104 0.023777
6.98040179157 0.182435
7.47900396497 0.503714
7.97760641128 0.826195
8.47620913053 1.1222
8.97481212276 1.36117
9.473415388 1.54291
9.97201892629 1.68159
10.4706227377 1.76153
10.9692268221 1.82256
11.4678311798 1.82287
11.9664358106 1.83384
12.4650407146 1.88515
12.9636458919 1.9413
13.4622513425 1.98342
13.9608570664 1.97984
14.4594630637 1.95534
14.9580693343 1.92447
15.4566758784 1.88899
15.9552826959 1.85497
16.4538897869 1.82147
16.9524971515 1.77616
17.4511047896 1.72682
17.9497127013 1.67363
18.4483208867 1.62386
18.9469293457 1.56741
19.4455380784 1.52035
19.9441470848 1.47763
20.442756365 1.42885
20.9413659191 1.39071
21.4399757469 1.34117
21.9385858486 1.28904
22.4371962243 1.23026
22.9358068739 1.18747
23.4344177974 1.15137
23.933028995 1.10601
24.4316404666 1.07842
24.9302522122 1.06137
