-24.9332092305 0.76015
-24.434551547 0.788296
-23.9358935986 0.810164
-23.4372353854 0.821881
-22.9385769073 0.834317
-22.4399181642 0.865453
-21.9412591562 0.905514
-21.4425998833 0.922844
-20.9439403453 0.931716
-20.4452805422 0.94773
-19.9466204741 0.955724
-19.4479601409 0.96769
-18.9492995425 0.976814
-18.4506386789 0.960421
-17.9519775501 0.950535
-17.453316156 0.936334
-16.9546544967 0.933111
-16.455992572 0.948883
-15.957330382 0.930945
-15.4586679267 0.897538
-14.9600052059 0.830434
-14.4613422196 0.773701
-13.9626789679 0.726484
-13.4640154506 0.696656
-12.9653516678 0.674843
-12.4666876195 0.655039
-11.9680233055 0.610642
-11.4693587258 0.563548
-10.9706938805 0.516713
-10.4720287695 0.47643
-9.97336339273 0.449368
-9.47469775018 0.421317
-8.97603184182 0.385809
-8.47736566761 0.36626
-7.97869922753 0.362307
-7.48003252153 0.332756
-6.9813655496 0.29007
-6.48269831168 0.251446
-5.98403080776 0.213068
-5.48536303779 0.171383
-4.98669500175 0.135477
-4.4880266996 0.106065
-3.98935813132 0.127381
-3.49068929685 0.108736
-2.99202019618 0.0931965
-2.49335082928 0.0850324
-1.9946811961 0.0623662
-1.49601129661 0.0224137
-0.99734113079 0.00664015
-0.498670698596 0.0109645
0 0
0.498670965033 0.00746327
0.997342196535 0.0302248
1.49601369454 0.0624356
1.99468545908 0.112583
2.49335749018 0.159127
2.99202978789 0.150409
3.49070235223 0.0882832
3.98937518323 0.0341255
4.48804828094 0.0197572
4.98672164537 0.0995093
5.48539527657 0.186472
5.98406917457 0.223876
6.48274333939 0.284636
6.98141777108 0.414684
7.48009246966 0.566038
7.97876743517 0.651638
8.47744266765 0.716616
8.97611816711 0.768777
9.4747939336 0.826489
9.97346996715 0.796314
10.4721462678 0.772189
10.9708228356 0.813608
11.4694996705 0.856324
11.9681767726 0.880654
12.4668541419 0.894655
12.9655317785 0.896575
13.4642096824 0.890726
13.9628878536 0.889888
14.4615662921 0.891917
14.960244998 0.900348
15.4589239714 0.875748
15.9576032122 0.848224
16.4562827205 0.84182
16.9549624963 0.835967
17.4536425396 0.82762
17.9523228506 0.822654
18.4510034291 0.812137
18.9496842753 0.776693
19.4483653892 0.733976
19.9470467707 0.710343
20.4457284201 0.719641
20.9444103371 0.680413
21.4430925221 0.6532
21.9417749748 0.606184
22.4404576954 0.563269
22.939140684 0.513593
23.4378239404 0.500568
23.9365074649 0.501312
24.4351912573 0.504794
24.9338753178 0.497802
