-24.930198063 1.12667
-24.4316007102 1.12015
-23.9330030882 1.1137
-23.434405197 1.12019
-22.9358070365 1.12799
-22.4372086068 1.1243
-21.9386099077 1.12435
-21.4400109393 1.13034
-20.9414117015 1.13119
-20.4428121942 1.11955
-19.9442124175 1.09566
-19.4456123714 1.07131
-18.9470120557 1.04939
-18.4484114704 1.04119
-17.9498106155 1.03074
-17.4512094911 1.02369
-16.9526080969 1.03015
-16.4540064331 1.06005
-15.9554044995 1.10157
-15.4568022961 1.11099
-14.958199823 1.05704
-14.45959708 0.963363
-13.9609940671 0.921707
-13.4623907844 0.85094
-12.9637872317 0.749056
-12.465183409 0.771952
-11.9665793163 0.772429
-11.4679749536 0.744787
-10.9693703208 0.737745
-10.4707654179 0.717254
-9.97216024483 0.67803
-9.47355480159 0.634053
-8.97494908814 0.591389
-8.47634310444 0.558979
-7.97773685045 0.54237
-7.47913032614 0.516603
-6.98052353148 0.489112
-6.48191646644 0.475317
-5.98330913097 0.463609
-5.48470152505 0.408599
-4.98609364864 0.353273
-4.4874855017 0.332312
-3.9888770842 0.308557
-3.49026839611 0.277227
-2.9916594374 0.255191
-2.49305020802 0.237886
-1.99444070795 0.21913
-1.49583093714 0.183442
-0.997220895571 0.153641
-0.498610583203 0.127822
0 0.0507192
0.49861085407 0.0121487
0.997221979041 0.00499123
1.49583337495 0
1.99444504183 0.0486209
2.49305697971 0.0912554
2.99166918864 0.0976847
3.49028166863 0.101771
3.98889441974 0.100498
4.48750744198 0.0956414
4.9861207354 0.105027
5.48473430003 0.189908
5.98334813591 0.322866
6.48196224307 0.47411
6.98057662154 0.630246
7.47919127135 0.834958
7.97780619255 1.03391
8.47642138516 1.15031
8.97503684922 1.22581
9.47365258477 1.3051
9.97226859183 1.37451
10.4708848705 1.42646
10.9695014207 1.43019
11.4681182425 1.40276
11.966735336 1.37891
12.4653527011 1.38806
12.963970338 1.3654
13.4625882467 1.31505
13.9612064271 1.28466
14.4598248794 1.23663
14.9584436035 1.19645
15.4570625995 1.16888
15.9556818674 1.11486
16.4543014074 1.06588
16.9529212193 1.04681
17.4515413032 1.04298
17.9501616592 1.06483
18.4487822873 1.07626
18.9474031875 1.0697
19.4460243599 1.06002
19.9446458045 1.05491
20.4432675213 1.05201
20.9418895104 1.03972
21.4405117718 1.01421
21.9391343055 0.989819
22.4377571116 0.984626
22.9363801902 0.98571
23.4350035411 0.988564
23.9336271645 0.98692
24.4322510604 0.986357
24.9308752289 0.978861
