-24.9332374498 0.374909
-24.4345792064 0.403235
-23.935920698 0.436262
-23.4372619246 0.474825
-22.938602886 0.520063
-22.4399435824 0.571952
-21.9412840137 0.628233
-21.4426241797 0.66654
-20.9439640806 0.693386
-20.4453037162 0.689487
-19.9466430866 0.679211
-19.4479821916 0.66277
-18.9493210313 0.649791
-18.4506596057 0.644006
-17.9519979146 0.62496
-17.4533359581 0.57817
-16.9546737362 0.566989
-16.4560112487 0.564492
-15.9573484957 0.545884
-15.4586854771 0.492959
-14.9600221929 0.47055
-14.4613586431 0.465517
-13.9626948277 0.467712
-13.4640307465 0.457294
-12.9653663996 0.435973
-12.4667017869 0.42031
-11.9680369085 0.412023
-11.4693717642 0.360785
-10.970706354 0.297884
-10.4720406779 0.267655
-9.97337473595 0.243253
-9.47470852799 0.210132
-8.97604205404 0.190951
-8.47737531406 0.188994
-7.97870830801 0.182162
-7.48004103587 0.170597
-6.98137349761 0.162756
-6.48270569318 0.164546
-5.98403762256 0.181189
-5.48536928571 0.217181
-4.9867006826 0.251457
-4.4880318132 0.272096
-3.98936267747 0.274487
-3.49069327539 0.261503
-2.99202360691 0.276446
-2.49335367201 0.271066
-1.99468347065 0.2625
-1.49601300281 0.25415
-0.997342268436 0.248387
-0.498671267512 0.245638
0 0.246745
0.498671534133 0.241304
0.99734333492 0.209025
1.49601540239 0.141426
1.99468773659 0.0604742
2.49336033753 0.0167927
2.99203320526 0.0109602
3.49070633981 0.00793557
3.98937974121 0
4.48805340949 0.0361681
4.98672734468 0.133947
5.48540154683 0.301807
5.98407601595 0.470952
6.48275075209 0.481374
6.98142575528 0.427653
7.48010102555 0.363009
7.97877656293 0.421511
8.47745236745 0.490558
8.97612843915 0.584824
9.47480477807 0.657799
9.97348138422 0.697202
10.4721582577 0.711597
10.9708353984 0.733996
11.4695128065 0.780089
11.9681904819 0.811395
12.4668684248 0.835926
12.9655466351 0.872105
13.4642251129 0.948133
13.9629038581 0.959128
14.4615828709 0.905228
14.9602621513 0.830716
15.4589416993 0.745997
15.9576215149 0.651986
16.4563015982 0.567967
16.9549819492 0.540809
17.4536625679 0.539598
17.9523434544 0.500413
18.4510246087 0.490335
18.9497060308 0.441522
19.4483877208 0.391934
19.9470696786 0.353992
20.4457519044 0.366714
20.9444343982 0.401906
21.4431171599 0.43651
21.9418001897 0.453323
22.4404834875 0.450646
22.9391670535 0.427215
23.4378508875 0.39653
23.9365349897 0.375626
24.4352193601 0.374052
24.9339039987 0.387448
