-24.9295015078 0.500897
-24.4309181042 0.501363
-23.9323344307 0.498237
-23.4337504873 0.494586
-22.9351662739 0.494777
-22.4365817905 0.491253
-21.937997037 0.512234
-21.4394120134 0.542469
-20.9408267198 0.564692
-20.4422411559 0.568431
-19.9436553218 0.552144
-19.4450692176 0.515808
-18.946482843 0.471819
-18.4478961982 0.4447
-17.949309283 0.442869
-17.4507220974 0.448518
-16.9521346415 0.464348
-16.4535469151 0.48115
-15.9549589182 0.49041
-15.4563706509 0.511473
-14.9577821129 0.528072
-14.4591933044 0.555719
-13.9606042253 0.570058
-13.4620148756 0.599898
-12.9634252551 0.627826
-12.464835364 0.651802
-11.9662452021 0.661552
-11.4676547694 0.690141
-10.9690640658 0.692806
-10.4704730915 0.685954
-9.97188184619 0.633547
-9.47329032999 0.67033
-8.97469854283 0.628589
-8.47610648468 0.615813
-7.97751415549 0.628002
-7.47892155524 0.612605
-6.98032868389 0.595844
-6.4817355414 0.545343
-5.98314212775 0.503795
-5.48454844289 0.477587
-4.98595448679 0.445903
-4.48736025941 0.405222
-3.98876576073 0.381129
-3.49017099071 0.355011
-2.9915759493 0.324237
-2.49298063648 0.298578
-1.99438505222 0.284671
-1.49578919648 0.223162
-0.997193069214 0.152264
-0.498596670399 0.111904
0 0.106929
0.49859694202 0.0986014
0.997194155695 0.0830387
1.49579164106 0.0508767
1.99438939815 0.00679936
2.492987427 0
2.99158572764 0.0118679
3.49018430011 0.0233282
3.98878314445 0.0217147
4.48738226068 0.0486099
4.98598164884 0.105812
5.48458130897 0.171891
5.9831812411 0.258971
6.48178144527 0.339718
6.9803819215 0.441445
7.47898266985 0.534885
7.97758369033 0.600827
8.47618498298 0.632595
8.97478654785 0.651091
9.47338838495 0.67337
9.97199049434 0.735433
10.470592876 0.825351
10.9691955301 0.921309
11.4677984565 0.996374
11.9664016553 1.03628
12.4650051266 1.07882
12.9636088704 1.09736
13.4622128867 1.10549
13.9608171755 1.10751
14.459421737 1.08219
14.958026571 1.05878
15.4566316777 1.04767
15.9552370571 1.07737
16.4538427093 1.0492
16.9524486342 0.999032
17.4510548318 0.943442
17.9496613023 0.912938
18.4482680457 0.943495
18.946875062 0.9285
19.4454823512 0.820538
19.9440899134 0.723438
20.4426977485 0.688166
20.9413058567 0.64845
21.439914238 0.624882
21.9385228924 0.645195
22.4371318199 0.67529
22.9357410206 0.654556
23.4343504945 0.643849
23.9329602416 0.657159
24.4315702621 0.665982
24.9301805558 0.663963
