-24.9378646051 0.887803
-24.4391136469 0.848338
-23.9403624306 0.817201
-23.4416109563 0.801448
-22.9428592238 0.780826
-22.4441072333 0.770783
-21.9453549846 0.760176
-21.4466024777 0.749174
-20.9478497126 0.738371
-20.4490966892 0.725203
-19.9503434075 0.708535
-19.4515898676 0.690153
-18.9528360693 0.680649
-18.4540820126 0.673831
-17.9553276975 0.660103
-17.456573124 0.626036
-16.9578182921 0.557582
-16.4590632016 0.575811
-15.9603078526 0.614034
-15.4615522451 0.605947
-14.9627963789 0.587033
-14.4640402542 0.567491
-13.9652838708 0.532339
-13.4665272287 0.492118
-12.9677703279 0.465621
-12.4690131684 0.443891
-11.9702557501 0.398749
-11.471498073 0.342521
-10.9727401371 0.317706
-10.4739819423 0.285583
-9.97522348861 0.230888
-9.476464776 0.179671
-8.97770580443 0.147741
-8.47894657388 0.115599
-7.98018708431 0.0707927
-7.4814273357 0.0435112
-6.982667328 0.023349
-6.4839070612 0.0104679
-5.98514653526 0.0285297
-5.48638575015 0.0287284
-4.98762470584 0.0294101
-4.4888634023 0.0369198
-3.99010183949 0.0442284
-3.4913400174 0.0491185
-2.99257793598 0.0419537
-2.49381559521 0.0352391
-1.99505299506 0.0268684
-1.49629013549 0.0308909
-0.997527016481 0.0568256
-0.498763637993 0.114844
0 0.168267
0.49876389753 0.188416
0.997528054626 0.160669
1.49629247132 0.111687
1.99505714764 0.0485684
2.49382208362 0.0223964
2.99258727929 0.0263005
3.49135273468 0.0169261
3.99011844982 0.00223296
4.48888442474 0
4.98765065947 0.0224811
5.48641715404 0.0929603
5.98518390848 0.191274
6.48395092283 0.241818
6.98271819711 0.44988
7.48148573135 0.639443
7.98025352558 0.682609
8.47902157984 0.729286
8.97778989416 0.753107
9.47655846855 0.782316
9.97532730307 0.778933
10.4740963977 0.786104
10.9728657526 0.777533
11.4716353676 0.787169
11.9704052429 0.807996
12.4691753784 0.832501
12.9679457743 0.859146
13.4667164304 0.855745
13.965487347 0.858132
14.4642585239 0.87048
14.9630299612 0.852198
15.461801659 0.797113
15.9605736173 0.755831
16.4593458361 0.746051
16.9581183154 0.743911
17.4568910553 0.740514
17.9556640558 0.733993
18.4544373169 0.728747
18.9532108387 0.727692
19.4519846212 0.725208
19.9507586644 0.72078
20.4495329683 0.72399
20.948307533 0.721481
21.4470823586 0.71956
21.945857445 0.736746
22.4446327922 0.729163
22.9434084004 0.718754
23.4421842695 0.708911
23.9409603996 0.707947
24.4397367906 0.715007
24.9385134427 0.720506
