-24.9784157938 1.04466
-24.4788521694 1.08102
-23.9792883537 1.07283
-23.4797243466 1.03049
-22.9801601483 1.00366
-22.4805957585 0.992313
-21.9810311774 0.971149
-21.481466405 0.942743
-20.9819014411 0.911496
-20.4823362859 0.87023
-19.9827709392 0.887616
-19.4832054012 0.883069
-18.9836396717 0.88238
-18.4840737508 0.881934
-17.9845076384 0.902073
-17.4849413346 0.92096
-16.9853748393 0.852702
-16.4858081526 0.78156
-15.9862412743 0.714208
-15.4866742046 0.65
-14.9871069433 0.597002
-14.4875394905 0.587726
-13.9879718462 0.601037
-13.4884040104 0.622374
-12.9888359829 0.645716
-12.489267764 0.665648
-11.9896993534 0.645623
-11.4901307513 0.597323
-10.9905619576 0.542176
-10.4909929722 0.492154
-9.99142379526 0.454178
-9.49185442668 0.423142
-8.99228486645 0.383724
-8.49271511458 0.331584
-7.99314517105 0.267286
-7.49357503584 0.168675
-6.99400470896 0.0948152
-6.49443419038 0.0535705
-5.9948634801 0.0298255
-5.4952925781 0.0159225
-4.99572148438 0.00360687
-4.49615019893 0
-3.99657872173 0.00291579
-3.49700705277 0.00558437
-2.99743519205 0.0179608
-2.49786313954 0.0236407
-1.99829089525 0.0169999
-1.49871845917 0.00739708
-0.999145831267 0.00146608
-0.499573011549 0.0134873
0 0.0232282
0.499573203391 0.0233958
0.999146598632 0.0218118
1.49872018574 0.0135747
1.99829396471 0.00902627
2.49786793558 0.00902588
2.99744209833 0.0132005
3.49701645299 0.0124451
3.99659099957 0.00877243
4.49616573807 0.00654447
4.99574066851 0.00718424
5.49531579089 0.00631333
5.99489110524 0.00697871
6.49446661155 0.0345215
6.99404230984 0.108795
7.49361820012 0.204876
7.9931942824 0.289955
8.49277055669 0.362112
8.992347023 0.412432
9.49192368134 0.427412
9.99150053172 0.416512
10.4910775742 0.405016
10.9906548087 0.385597
11.4902322352 0.349947
11.9898098539 0.336075
12.4893876646 0.311193
12.9889656675 0.283442
13.4885438625 0.215998
13.9881222496 0.164551
14.4877008288 0.18452
14.9872796002 0.21273
15.4868585637 0.258014
15.9864377194 0.312417
16.4860170673 0.381013
16.9855966074 0.461634
17.4851763396 0.550925
17.9847562641 0.664885
18.4843363808 0.750572
18.9839166897 0.812267
19.4834971909 0.883467
19.9830778843 0.935771
20.48265877 0.949181
20.982239848 0.953184
21.4818211182 0.963989
21.9814025807 0.968055
22.4809842356 0.975881
22.9805660827 0.986144
23.4801481222 0.998818
23.979730354 1.04388
24.4793127781 1.08842
24.9788953946 1.11144
