-24.9411403858 0.991385
-24.4423238943 1.02346
-23.9435071454 1.05698
-23.4446901392 1.07789
-22.9458728755 1.02517
-22.4470553545 0.944676
-21.948237576 0.920068
-21.44941954 0.990994
-20.9506012465 1.09664
-20.4517826954 1.13532
-19.9529638868 1.18172
-19.4541448206 1.22368
-18.9553254968 1.24543
-18.4565059153 1.27354
-17.9576860761 1.31594
-17.4588659792 1.36345
-16.9600456245 1.41104
-16.4612250121 1.44322
-15.9624041419 1.41632
-15.4635830138 1.39224
-14.9647616279 1.36349
-14.4659399841 1.32696
-13.9671180823 1.32134
-13.4682959226 1.29922
-12.969473505 1.22936
-12.4706508293 1.14752
-11.9718278956 1.08841
-11.4730047038 1.04289
-10.974181254 0.995751
-10.475357546 0.959562
-9.97653357981 0.918551
-9.47770935548 0.890577
-8.97888487294 0.949268
-8.48006013216 0.979653
-7.98123513311 0.952713
-7.48240987576 0.914672
-6.98358436008 0.879697
-6.48475858605 0.825476
-5.98593255363 0.81129
-5.4871062628 0.76144
-4.98827971352 0.697391
-4.48945290578 0.632526
-3.99062583953 0.567707
-3.49179851475 0.520691
-2.99297093141 0.471829
-2.49414308948 0.434257
-1.99531498893 0.425188
-1.49648662974 0.447904
-0.997658011875 0.48286
-0.498829135304 0.482496
0 0.48961
0.498829394066 0.427751
0.997659046923 0.292485
1.4964889586 0.157512
1.99531912913 0.096715
2.49414955853 0.0560095
2.99298024684 0.0402495
3.49181119408 0.0237495
3.99064240029 0.00794694
4.4894738655 0
4.98830558972 0.0150281
5.487137573 0.0476403
5.98596981535 0.0790001
6.48480231682 0.0904301
6.98363507742 0.120596
7.48246809719 0.252664
7.98130137615 0.380833
8.48013491434 0.538854
8.97896871178 0.631851
9.47780276851 0.587025
9.97663708454 0.565974
10.4754716599 0.590851
10.9743064947 0.631963
11.4731415888 0.703731
11.9719769424 0.824339
12.4708125554 0.873926
12.9696484279 0.915173
13.4684845599 0.946987
13.9673209514 0.983395
14.4661576026 1.01341
14.9649945133 1.0261
15.4638316836 1.07472
15.9626691136 1.16149
16.4615068033 1.24135
16.9603447527 1.26079
17.4591829619 1.14754
17.9580214308 0.99727
18.4568601595 0.927481
18.955699148 0.878453
19.4545383964 0.797656
19.9533779047 0.729006
20.4522176729 0.801674
20.9510577011 0.951195
21.4498979892 1.12117
21.9487385373 1.218
22.4475793454 1.20276
22.9464204136 1.14564
23.4452617419 1.05062
23.9441033303 0.84914
24.4429451789 0.663987
24.9417872876 0.563342
