-24.9411880793 0.708805
-24.4423706412 0.753916
-23.9435529454 0.805767
-23.4447349919 0.85464
-22.9459167807 0.894622
-22.4470983118 0.871983
-21.9482795852 0.891707
-21.4494606008 0.954154
-20.9506413586 0.99367
-20.4518218585 1.02275
-19.9530021006 1.06094
-19.4541820848 1.06474
-18.9553618111 1.06496
-18.4565412794 1.08186
-17.9577204897 1.10696
-17.458899442 1.08632
-16.9600781363 1.07792
-16.4612565725 1.05754
-15.9624347506 1.04585
-15.4636126706 1.02351
-14.9647903324 0.990685
-14.4659677361 0.948179
-13.9671448815 0.901995
-13.4683217687 0.854145
-12.9694983976 0.824873
-12.4706747682 0.821107
-11.9718508805 0.803615
-11.4730267344 0.7772
-10.9742023299 0.76297
-10.475377667 0.753928
-9.97655274564 0.729032
-9.47772756582 0.698024
-8.97890212749 0.690396
-8.48007643062 0.66417
-7.98125047519 0.606882
-7.48242426117 0.526743
-6.98359778853 0.457162
-6.48477105724 0.426333
-5.98594406726 0.4103
-5.48711681858 0.405757
-4.98828931116 0.415483
-4.48946154497 0.44849
-3.99063351999 0.471646
-3.49180523618 0.49139
-2.99297669352 0.48732
-2.49414789197 0.485665
-1.99531883152 0.510077
-1.49648951212 0.551442
-0.997659933757 0.525061
-0.498830096391 0.442846
0 0.348852
0.498830355448 0.237745
0.99766096998 0.17502
1.49649184363 0.132081
1.99532297642 0.115963
2.49415436838 0.124042
2.99298601954 0.14562
3.49181792993 0.112432
3.99065009958 0.0636836
4.48948252852 0.0287266
4.98831521677 0
5.48714816437 0.0132007
5.98598137134 0.0641239
6.48481483772 0.185686
6.98364856352 0.292897
7.48248254879 0.404198
7.98131679354 0.524725
8.48015129782 0.662129
8.97898606164 0.720715
9.47782108503 0.806425
9.97665636803 0.939054
10.4754919107 1.07231
10.974327713 1.16041
11.4731637749 1.22923
11.9720000966 1.25743
12.4708366781 1.23683
12.9696735193 1.18797
13.4685106204 1.12087
13.9673479812 1.039
14.466185602 0.990577
14.9650234826 1.03641
15.4638616231 1.07433
15.9627000236 1.06299
16.4615386841 1.04209
16.9603776046 1.05895
17.4592167851 1.08736
17.9580562257 1.11899
18.4568959263 1.1364
18.9557358871 1.17523
19.4545761081 1.22012
19.9534165892 1.25609
20.4522573305 1.32455
20.9510983321 1.40986
21.4499395939 1.53346
21.948781116 1.6336
22.4476228985 1.55465
22.9464649413 1.49593
23.4453072444 1.52618
23.944149808 1.58881
24.442992632 1.6199
24.9418357165 1.54771
