-24.9752385935 0.24509
-24.4757387247 0.255906
-23.9762386559 0.3214
-23.4767383871 0.414641
-22.9772379185 0.476523
-22.4777372498 0.513147
-21.9782363812 0.540605
-21.4787353126 0.560971
-20.979234044 0.541019
-20.4797325754 0.564735
-19.9802309068 0.582534
-19.4807290381 0.59165
-18.9812269694 0.572832
-18.4817247006 0.580034
-17.9822222318 0.598067
-17.4827195628 0.615551
-16.9832166938 0.644829
-16.4837136246 0.65262
-15.9842103554 0.613712
-15.4847068859 0.614917
-14.9852032164 0.632025
-14.4856993467 0.651534
-13.9861952768 0.695288
-13.4866910067 0.72139
-12.9871865364 0.67592
-12.487681866 0.592348
-11.9881769952 0.54666
-11.4886719243 0.502435
-10.9891666531 0.449285
-10.4896611817 0.421072
-9.99015550997 0.402892
-9.49064963798 0.376571
-8.99114356568 0.326381
-8.49163729309 0.249078
-7.99213082017 0.151396
-7.49262414692 0.0940211
-6.99311727332 0.0756762
-6.49361019937 0.073697
-5.99410292505 0.0952981
-5.49459545035 0.116184
-4.99508777526 0.119879
-4.49557989976 0.103698
-3.99607182384 0.103458
-3.49656354749 0.119285
-2.9970550707 0.135831
-2.49754639346 0.124633
-1.99803751575 0.148746
-1.49852843756 0.162042
-0.999019158881 0.159207
-0.499509679698 0.156339
0 0.163236
0.499509880224 0.230424
0.999019960988 0.34989
1.49853024231 0.445855
1.99804072419 0.484053
2.49755140664 0.529829
2.99706228969 0.590348
3.49657337333 0.660208
3.99608465759 0.695381
4.49559614247 0.725177
4.99510782798 0.706972
5.49461971415 0.676508
5.99413180098 0.636642
6.49364408848 0.601488
6.99315657666 0.597754
7.49266926554 0.598637
7.99218215514 0.559729
8.49169524545 0.516583
8.9912085365 0.492376
9.49072202829 0.486126
9.99023572084 0.490849
10.4897496142 0.49548
10.9892637083 0.489331
11.4887780032 0.482983
11.9882924989 0.469161
12.4878071954 0.424563
12.9873220927 0.377094
13.4868371909 0.264613
13.98635249 0.147067
14.4858679899 0.0780774
14.9853836907 0.0311335
15.4848995923 0
15.9844156949 0.0337566
16.4839319984 0.110452
16.9834485028 0.164259
17.4829652082 0.208132
17.9824821145 0.246254
18.4819992218 0.319668
18.98151653 0.411794
19.4810340392 0.466062
19.9805517495 0.468472
20.4800696607 0.401976
20.979587773 0.368357
21.4791060863 0.373582
21.9786246006 0.357595
22.478143316 0.34556
22.9776622325 0.33553
23.47718135 0.353785
23.9767006687 0.385325
24.4762201884 0.371154
24.9757399093 0.346928
