-24.9752951445 0.326141
-24.4757941511 0.31307
-23.9762929574 0.321723
-23.4767915636 0.338659
-22.9772899695 0.342636
-22.4777881752 0.342314
-21.9782861807 0.35016
-21.478783986 0.368476
-20.9792815909 0.377359
-20.4797789956 0.406625
-19.9802762 0.445353
-19.4807732041 0.511068
-18.9812700079 0.573506
-18.4817666114 0.566427
-17.9822630145 0.574586
-17.4827592173 0.587663
-16.9832552197 0.611922
-16.4837510218 0.63557
-15.9842466235 0.639428
-15.4847420247 0.636093
-14.9852372256 0.617959
-14.485732226 0.592838
-13.986227026 0.563453
-13.4867216256 0.535838
-12.9872160247 0.516705
-12.4877102233 0.495024
-11.9882042215 0.462022
-11.4886980191 0.420773
-10.9891916162 0.422
-10.4896850129 0.41837
-9.99017820895 0.387733
-9.49067120449 0.348154
-8.99116399947 0.311642
-8.49165659389 0.264915
-7.99214898772 0.212093
-7.49264118096 0.164469
-6.99313317359 0.127827
-6.49362496561 0.120814
-5.99411655699 0.111059
-5.49460794773 0.0915729
-4.99509913782 0.0818383
-4.49559012724 0.0632034
-3.99608091598 0.050231
-3.49657150403 0.0434702
-2.99706189138 0.0402299
-2.49755207801 0.0395493
-1.99804206391 0.0341195
-1.49853184907 0.030199
-0.999021433484 0.028006
-0.499510817131 0.024572
0 0.0170215
0.499511017919 0.00571558
0.999022236638 0.00401245
1.49853365617 0.00839123
1.99804527653 0.00372949
2.49755709772 0
2.99706911977 0.00322154
3.49658134267 0.000630587
3.99609376645 0.0338577
4.49560639111 0.0604525
4.99511921668 0.08952
5.49463224315 0.144944
5.99414547054 0.213848
6.49365889887 0.189873
6.99317252814 0.202509
7.49268635837 0.211124
7.99220038957 0.249585
8.49171462176 0.267924
8.99122905493 0.26806
9.49074368912 0.282039
9.99025852432 0.316827
10.4897735606 0.367404
10.9892887978 0.417918
11.4888042362 0.459463
11.9883198756 0.479756
12.487835716 0.482364
12.9873517576 0.454206
13.4868680003 0.409102
13.986384444 0.385091
14.4859010889 0.384337
14.985417935 0.372911
15.4849349822 0.368295
15.9844522306 0.355712
16.4839696801 0.340149
16.9834873308 0.35747
17.4830051827 0.40685
17.9825232359 0.474106
18.4820414902 0.496863
18.9815599458 0.516194
19.4810786026 0.555189
19.9805974607 0.575359
20.4801165201 0.605347
20.9796357807 0.659321
21.4791552427 0.738981
21.9786749059 0.786464
22.4781947705 0.933194
22.9777148363 1.17209
23.4772351036 1.32712
23.9767555722 1.39889
24.4762762421 1.45648
24.9757971134 1.4565
