-24.9334170298 1.71655
-24.4347553087 1.67111
-23.936093318 1.63761
-23.4374310575 1.59027
-22.9387685274 1.54575
-22.4401057275 1.49471
-21.9414426578 1.4253
-21.4427793183 1.40443
-20.9441157089 1.40518
-20.4454518297 1.39969
-19.9467876805 1.34112
-19.4481232614 1.29467
-18.9494585723 1.26356
-18.4507936131 1.24118
-17.9521283839 1.22961
-17.4534628847 1.21851
-16.9547971153 1.2135
-16.4561310757 1.21456
-15.957464766 1.2353
-15.458798186 1.26178
-14.9601313358 1.26824
-14.4614642154 1.25459
-13.9627968245 1.20225
-13.4641291634 1.14667
-12.9654612319 1.0798
-12.4667930299 0.990536
-11.9681245575 0.898052
-11.4694558146 0.85733
-10.9707868012 0.838441
-10.4721175173 0.809665
-9.97344796277 0.799786
-9.47477813764 0.712228
-8.97610804185 0.654179
-8.4774376754 0.60406
-7.97876703823 0.564876
-7.48009613031 0.550853
-6.98142495162 0.50837
-6.48275350212 0.428031
-5.98408178178 0.378008
-5.48540979056 0.329101
-4.98673752843 0.275159
-4.48806499536 0.20818
-3.98939219132 0.166394
-3.49071911627 0.160289
-2.99204577018 0.205743
-2.49337215303 0.289305
-1.99469826476 0.245112
-1.49602410536 0.12323
-0.997349674786 0.0898385
-0.498674973011 0.0794101
0 0.11297
0.498675244279 0.129441
0.99735075986 0.172246
1.49602654677 0.159448
1.99470260506 0.0778674
2.49337893474 0.0160284
2.99205553585 0.000772465
3.49073240842 0.0268684
3.9894095525 0.0309664
4.4880869681 0.00923779
4.98676465527 0.0146155
5.48544261403 0.0330617
5.98412084442 0.0263806
6.48279934647 0.0126318
6.98147812022 0
7.48015716569 0.0472631
7.97883648292 0.132233
8.47751607194 0.221282
8.97619593278 0.319772
9.47487606548 0.364594
9.97355647007 0.428368
10.4722371466 0.484887
10.970918095 0.532601
11.4695993155 0.556303
11.968280808 0.565935
12.4669625725 0.574725
12.9656446091 0.589629
13.4643269178 0.615981
13.9630094987 0.629744
14.4616923517 0.639394
14.960375477 0.623454
15.4590588745 0.599284
15.9577425443 0.621079
16.4564264864 0.635074
16.9551107009 0.648263
17.4537951877 0.699542
17.952479947 0.770769
18.4511649786 0.863191
18.9498502828 0.901292
19.4485358595 0.890764
19.9472217087 0.862394
20.4459078304 0.863266
20.9445942248 0.866111
21.4432808918 0.865701
21.9419678315 0.822536
22.4406550439 0.785331
22.939342529 0.744257
23.4380302869 0.730471
23.9367183176 0.730533
24.4354066211 0.739392
24.9340951975 0.749801
