-24.9327049882 0.620075
-24.43405759 0.675365
-23.9354099188 0.712919
-23.4367619746 0.722812
-22.9381137573 0.724383
-22.4394652669 0.725356
-21.9408165033 0.755022
-21.4421674666 0.783771
-20.9435181567 0.804343
-20.4448685736 0.82149
-19.9462187172 0.817282
-19.4475685875 0.808891
-18.9489181845 0.789032
-18.4502675081 0.760038
-17.9516165583 0.745215
-17.452965335 0.767269
-16.9543138383 0.718039
-16.4556620681 0.61379
-15.9570100244 0.5864
-15.4583577071 0.569803
-14.9597051162 0.55647
-14.4610522516 0.541293
-13.9623991134 0.533949
-13.4637457015 0.542813
-12.9650920159 0.545557
-12.4664380565 0.54944
-11.9677838232 0.551126
-11.4691293162 0.5501
-10.9704745353 0.548089
-10.4718194805 0.553284
-9.97316415175 0.560992
-9.47450854905 0.562524
-8.97585267234 0.552571
-8.47719652161 0.538737
-7.9785400968 0.542396
-7.4798833979 0.534363
-6.98122642487 0.500508
-6.48256917767 0.466859
-5.98391165628 0.496338
-5.48525386065 0.523454
-4.98659579076 0.513618
-4.48793744657 0.489631
-3.98927882805 0.456173
-3.49061993516 0.434945
-2.99196076788 0.398935
-2.49330132617 0.34211
-1.99464160999 0.276327
-1.49598161932 0.190997
-0.997321354122 0.0873455
-0.498660814359 0.138647
0 0.122842
0.498661088987 0.0868424
0.997322452637 0.0258898
1.49598409098 0.00450151
1.99464600405 0.0020426
2.49330819189 0
2.99197065451 0.0110005
3.49063339197 0.0381987
3.98929640428 0.093285
4.48795969149 0.17813
4.98662325362 0.241525
5.48528709071 0.286865
5.9839512028 0.339225
6.48261558991 0.393607
6.98128025208 0.448585
7.47994518934 0.49279
7.97861040172 0.50526
8.47727588926 0.516492
8.97594165199 0.535881
9.47460768994 0.566081
9.97327400315 0.602482
10.4719405916 0.615159
10.9706074555 0.571814
11.4692745946 0.491729
11.9679420092 0.44544
12.4666096992 0.422651
12.9652776646 0.409029
13.4639459055 0.402268
13.962614422 0.397032
14.461283214 0.400442
14.9599522815 0.414391
15.4586216247 0.418471
15.9572912436 0.411737
16.4559611381 0.409347
16.9546313084 0.469429
17.4533017544 0.587143
17.9519724761 0.726253
18.4506434737 0.907044
18.9493147472 1.01065
19.4479862965 1.02503
19.9466581217 0.980337
20.4453302229 0.911455
20.9440026001 0.841641
21.4426752532 0.767928
21.9413481824 0.658472
22.4400213877 0.550128
22.9386948691 0.472587
23.4373686267 0.437005
23.9360426604 0.453222
24.4347169703 0.470095
24.9333915565 0.429934
