-24.9751444236 0.449663
-24.4756464274 0.452544
-23.9761482317 0.454396
-23.4766498366 0.450634
-22.9771512419 0.439572
-22.4776524477 0.441115
-21.978153454 0.440143
-21.4786542607 0.444264
-20.9791548678 0.448809
-20.4796552754 0.447414
-19.9801554834 0.446862
-19.4806554918 0.446295
-18.9811553006 0.449885
-18.4816549097 0.458542
-17.9821543192 0.475107
-17.4826535291 0.471863
-16.9831525393 0.493007
-16.4836513499 0.542398
-15.9841499607 0.596822
-15.4846483719 0.639966
-14.9851465833 0.686689
-14.485644595 0.719453
-13.986142407 0.744253
-13.4866400193 0.772049
-12.9871374317 0.80949
-12.4876346444 0.848502
-11.9881316574 0.914627
-11.4886284705 0.955168
-10.9891250838 0.947066
-10.4896214973 0.922249
-9.99011771093 0.88395
-9.49061372474 0.823883
-8.99110953869 0.738164
-8.49160515278 0.652614
-7.99210056697 0.50364
-7.49259578128 0.370769
-6.99309079567 0.288688
-6.49358561014 0.239389
-5.99408022469 0.189119
-5.49457463928 0.173448
-4.99506885392 0.170106
-4.49556286859 0.113392
-3.99605668328 0.0639624
-3.49655029798 0.0416953
-2.99704371267 0.0315666
-2.49753692734 0.0235382
-1.99802994198 0.0264371
-1.49852275658 0.0119083
-0.999015371125 0.00556459
-0.499507785603 0.00982138
0 0.00686283
0.499507985694 0.0152383
0.999016171491 0.01294
1.49852455741 0.00990455
1.99803314345 0.0135173
2.49754192963 0.0176159
2.99705091596 0.0144234
3.49656010246 0.00698508
3.99606948914 0.00195504
4.49557907601 0
4.99508886307 0.00241784
5.49459885035 0.00571548
5.99410903786 0.0139484
6.4936194256 0.0278744
6.99313001359 0.038629
7.49264080185 0.0394133
7.99215179038 0.0459013
8.49166297919 0.0625073
8.99117436831 0.0818721
9.49068595773 0.0926507
9.99019774748 0.080635
10.4897097376 0.0726031
10.989221928 0.105539
11.4887343188 0.170035
11.9882469099 0.21962
12.4877597015 0.276959
12.9872726934 0.346171
13.4867858858 0.41141
13.9862992785 0.483774
14.4858128717 0.536414
14.9853266654 0.613807
15.4848406595 0.71761
15.984354854 0.765308
16.4838692491 0.794163
16.9833838446 0.793174
17.4828986406 0.769021
17.9824136372 0.70875
18.4819288343 0.637634
18.9814442319 0.601787
19.4809598301 0.547775
19.9804756288 0.456837
20.4799916281 0.411858
20.979507828 0.406527
21.4790242285 0.383817
21.9785408296 0.364409
22.4780576314 0.332405
22.9775746337 0.320153
23.4770918368 0.300828
23.9766092404 0.286294
24.4761268448 0.280454
24.9756446498 0.281327
