-24.9413128722 1.06804
-24.4424929945 1.02909
-23.9436728569 0.967776
-23.4448524593 0.894954
-22.9460318017 0.931955
-22.4472108841 0.982582
-21.9483897065 0.978399
-21.4495682688 0.955149
-20.9507465709 0.941692
-20.451924613 0.907359
-19.9531023948 0.884278
-19.4542799165 0.834287
-18.9554571779 0.800928
-18.4566341791 0.742516
-17.9578109201 0.671354
-17.4589874007 0.635904
-16.9601636209 0.629781
-16.4613395808 0.619861
-15.9625152803 0.585692
-15.4636907194 0.553414
-14.964865898 0.519105
-14.4660408161 0.485654
-13.9672154737 0.505288
-13.4683898708 0.494811
-12.9695640073 0.465697
-12.4707378831 0.439371
-11.9719114984 0.412186
-11.473084853 0.371988
-10.9742579469 0.302083
-10.4754307801 0.256063
-9.97660335254 0.228384
-9.47777566421 0.187294
-8.97894771507 0.132304
-8.4801195051 0.0874967
-7.98129103427 0.0648821
-7.48246230254 0.0531387
-6.9836333099 0.0481168
-6.4848040563 0.0537893
-5.98597454173 0.0584213
-5.48714476615 0.0464579
-4.98831472953 0.0417148
-4.48948443185 0.0432476
-3.99065387307 0.0509984
-3.49182305317 0.0559783
-2.99299197212 0.0536345
-2.49416062989 0.0508589
-1.99532902644 0.0344944
-1.49649716176 0.028899
-0.997665035815 0.0152606
-0.49883264857 0.00310505
0 0
0.498832909923 0.00796866
0.99766608123 0.0190514
1.49649951395 0.0153186
1.99533320811 0.000523316
2.49416716374 0.0015134
2.99300138086 0.00878777
3.49183585952 0.0147706
3.99067059973 0.0203687
4.48950560152 0.0222549
4.98834086493 0.0249364
5.48717638998 0.0383305
5.9860121767 0.0604803
6.48484822512 0.100219
6.98368453527 0.15398
7.48252110717 0.188999
7.98135794086 0.252267
8.48019503637 0.292912
8.97903239372 0.318493
9.47787001294 0.35015
9.97670789407 0.428606
10.4755460371 0.514048
10.9743844421 0.604822
11.4732231091 0.678548
11.9720620381 0.719832
12.4709012292 0.779015
12.9697406823 0.81095
13.4685803976 0.848216
13.9674203749 0.890233
14.4662606145 0.943097
14.9651011162 0.962365
15.4639418801 0.972057
15.9627829063 0.99494
16.4616241947 1.00897
16.9604657455 1.0047
17.4593075585 0.984683
17.958149634 0.986549
18.4569919718 1.00664
18.9558345721 1.01611
19.4546774347 1.01466
19.9535205599 1.0171
20.4523639476 1.03494
20.9512075978 1.05937
21.4500515105 1.08824
21.9488956859 1.10449
22.4477401239 1.10679
22.9465848245 1.10121
23.4454297877 1.11996
23.9442750137 1.17261
24.4431205025 1.21091
24.9419662539 1.2123
