-24.9435226758 0.595839
-24.4446585848 0.599093
-23.9457942345 0.588332
-23.446929625 0.540475
-22.9480647561 0.512164
-22.449199628 0.510512
-21.9503342404 0.520631
-21.4514685935 0.479396
-20.9526026872 0.522749
-20.4537365214 0.549925
-19.9548700962 0.516433
-19.4560034115 0.49638
-18.9571364672 0.49938
-18.4582692634 0.51068
-17.9594018 0.510535
-17.460534077 0.502978
-16.9616660943 0.484489
-16.462797852 0.462483
-15.96392935 0.46825
-15.4650605882 0.477819
-14.9661915668 0.468124
-14.4673222855 0.467066
-13.9684527444 0.467564
-13.4695829435 0.472916
-12.9707128828 0.475558
-12.4718425621 0.492865
-11.9729719815 0.476554
-11.474101141 0.430802
-10.9752300405 0.384739
-10.47635868 0.359883
-9.97748705953 0.33181
-9.47861517895 0.298364
-8.97974303828 0.28686
-8.48087063751 0.290834
-7.98199797659 0.276581
-7.4831250555 0.237758
-6.98425187422 0.196995
-6.48537843271 0.127705
-5.98650473095 0.108572
-5.48763076891 0.0679734
-4.98875654656 0.041594
-4.48988206387 0.0222755
-3.99100732082 0.00981494
-3.49213231738 0
-2.99325705352 0.0182701
-2.49438152922 0.01641
-1.99550574443 0.00937399
-1.49662969915 0.0217408
-0.997753393334 0.0501248
-0.49887682696 0.0616149
0 0.0649843
0.498877087574 0.0593327
0.997754435789 0.0552497
1.49663204467 0.0568821
1.99550991426 0.0731271
2.49438804456 0.101044
2.99326643562 0.117722
3.49214508746 0.109905
3.99102400011 0.107124
4.48990317359 0.108077
4.98878260794 0.107919
5.48766230318 0.112364
5.98654225934 0.108827
6.48542247644 0.0991772
6.98430295452 0.102186
7.4831836936 0.119896
7.98206469371 0.173215
8.48094595488 0.274352
8.97982747713 0.394988
9.47870926049 0.50865
9.977591305 0.628245
10.4764736107 0.69684
10.9753561775 0.698937
11.4742390056 0.696496
11.973122095 0.698102
12.4720054456 0.698649
12.9708890575 0.691358
13.4697729308 0.698514
13.9686570654 0.74281
14.4675414614 0.79982
14.9664261188 0.854113
15.4653110377 0.876595
15.964196218 0.898573
16.4630816599 0.915777
16.9619673633 0.919182
17.4608533282 0.927307
17.9597395547 0.928448
18.4586260428 0.950731
18.9575127925 1.10008
19.456399804 1.30593
19.9552870771 1.41633
20.4541746119 1.38546
20.9530624085 1.32396
21.4519504668 1.19774
21.9508387869 1.04606
22.4497273689 0.953443
22.9486162128 0.962247
23.4475053185 0.980782
23.9463946861 0.984227
24.4452843157 0.975638
24.9441742072 0.961917
