-24.9750879711 0.687037
-24.4755910976 0.681795
-23.9760940248 0.680547
-23.4765967528 0.676066
-22.9770992815 0.684805
-22.477601611 0.707693
-21.9781037412 0.699139
-21.4786056721 0.634188
-20.9791074037 0.515572
-20.479608936 0.399043
-19.9801102689 0.49752
-19.4806114026 0.57635
-18.9811123369 0.619252
-18.4816130718 0.642714
-17.9821136073 0.678161
-17.4826139435 0.70087
-16.9831140803 0.718678
-16.4836140176 0.739551
-15.9841137556 0.757799
-15.4846132941 0.784842
-14.9851126331 0.791587
-14.4856117727 0.779504
-13.9861107128 0.693999
-13.4866094535 0.599744
-12.9871079946 0.504624
-12.4876063362 0.379884
-11.9881044783 0.3125
-11.4886024209 0.302931
-10.9891001639 0.243148
-10.4895977074 0.194379
-9.99009505125 0.161329
-9.49059219556 0.0945858
-8.99108914027 0.0484534
-8.49158588537 0.0761951
-7.99208243084 0.138241
-7.49257877669 0.153963
-6.99307492289 0.0623509
-6.49357086943 0.0263369
-5.9940666163 0.0184719
-5.49456216349 0.0176337
-4.99505751098 0.0165479
-4.49555265877 0.00355034
-3.99604760684 0
-3.49654235517 0.0216851
-2.99703690376 0.0561781
-2.4975312526 0.0843371
-1.99802540167 0.0891177
-1.49851935095 0.0797415
-0.999013100443 0.0709499
-0.49950665013 0.0659782
0 0.0521575
0.49950684996 0.0397221
0.999013899763 0.0539367
1.49852114942 0.0757203
1.99802859894 0.0787734
2.49753624834 0.0857515
2.99704409764 0.0923246
3.49655214683 0.0889313
3.99606039594 0.0847008
4.49556884498 0.10202
4.99507749396 0.139586
5.49458634289 0.177752
5.99409539179 0.212538
6.49360464066 0.227468
6.99311408952 0.222018
7.49262373838 0.218851
7.99213358725 0.204667
8.49164363615 0.174097
8.99115388509 0.161087
9.49066433407 0.130004
9.99017498312 0.0976746
10.4896858322 0.0736961
10.9891968814 0.0702216
11.4887081307 0.0613656
11.9882195802 0.0590317
12.4877312297 0.0705562
12.9872430794 0.103615
13.4867551292 0.135247
13.9862673792 0.18043
14.4857798293 0.258362
14.9852924796 0.294444
15.4848053302 0.322135
15.9843183809 0.395851
16.4838316318 0.472162
16.983345083 0.51491
17.4828587344 0.529854
17.9823725861 0.542876
18.4818866381 0.547183
18.9814008903 0.543842
19.4809153428 0.562385
19.9804299956 0.579112
20.4799448487 0.573891
20.9794599022 0.571577
21.478975156 0.574542
21.9784906102 0.581734
22.4780062647 0.594468
22.9775221196 0.611133
23.4770381749 0.627274
23.9765544305 0.63827
24.4760708866 0.655908
24.9755875431 0.644492
