-24.9412166689 0
-24.4423986633 0.160095
-23.9435803998 0.352662
-23.4447618785 0.487297
-22.9459430994 0.592186
-22.4471240623 0.734266
-21.9483047673 0.871877
-21.4494852144 0.94411
-20.9506654035 0.930756
-20.4518453346 0.880645
-19.9530250076 0.834521
-19.4542044226 0.801292
-18.9553835794 0.783774
-18.4565624781 0.776741
-17.9577411187 0.776372
-17.4589195011 0.78484
-16.9600976253 0.750258
-16.4612754912 0.687903
-15.9624530988 0.679608
-15.4636304481 0.677927
-14.9648075391 0.663717
-14.4659843718 0.646019
-13.967160946 0.646811
-13.4683372619 0.661226
-12.9695133192 0.68228
-12.4706891181 0.685528
-11.9718646585 0.711052
-11.4730399404 0.688225
-10.9742149637 0.64847
-10.4753897283 0.653983
-9.97656423441 0.660752
-9.47773848183 0.677281
-8.97891247056 0.697174
-8.48008620058 0.664416
-7.98125967186 0.619007
-7.48243288437 0.580805
-6.98360583808 0.547215
-6.48477853296 0.517367
-5.98595096899 0.521156
-5.48712314613 0.54043
-4.98829506436 0.52771
-4.48946672365 0.53607
-3.99063812396 0.567454
-3.49180926527 0.601309
-2.99298014755 0.625684
-2.49415077078 0.654428
-1.99532113491 0.652275
-1.49649123993 0.640633
-0.997661085806 0.677785
-0.498830672505 0.697561
0 0.663468
0.498830931737 0.628599
0.997662122735 0.590124
1.49649357302 0.560316
1.99532528263 0.507359
2.49415725159 0.462863
2.99298947992 0.443529
3.49182196766 0.433279
3.99065471483 0.419221
4.48948772146 0.403049
4.98832098759 0.368908
5.48715451324 0.350093
5.98598829844 0.366461
6.48482234321 0.42123
6.9836566476 0.499674
7.48249121162 0.569564
7.9813260353 0.642409
8.48016111868 0.688284
8.97899646179 0.769571
9.47783206464 0.927039
9.97666792727 1.13907
10.4755040497 1.32995
10.974340432 1.45849
11.4731770741 1.58212
11.9720139762 1.7502
12.4708511381 1.86519
12.9696885601 1.9036
13.468526242 1.89497
13.9673641839 1.85662
14.4662023858 1.75913
14.9650408478 1.63927
15.46387957 1.54709
15.9627185522 1.48534
16.4615577946 1.42222
16.9603972972 1.32976
17.4592370599 1.22451
17.958077083 1.15595
18.4569173663 1.09713
18.9557579098 1.05909
19.4545987138 1.04039
19.953439778 1.06904
20.4522811027 1.10461
20.9511226877 1.1516
21.4499645332 1.18375
21.9488066392 1.20292
22.4476490057 1.24164
22.9464916327 1.2899
23.4453345202 1.26527
23.9441776684 1.22549
24.4430210771 1.19057
24.9418647465 1.15994
