-24.9752009132 0.426777
-24.4757017937 0.410486
-23.9762024744 0.412532
-23.4767029553 0.425505
-22.9772032365 0.433115
-22.4777033179 0.434781
-21.9782031995 0.422784
-21.4787028813 0.386315
-20.9792023632 0.339035
-20.4797016453 0.446399
-19.9802007276 0.471168
-19.48069961 0.49237
-18.9811982925 0.50221
-18.4816967752 0.50727
-17.9821950579 0.571075
-17.4826931407 0.628676
-16.9831910236 0.708197
-16.4836887066 0.780844
-15.9841861896 0.820492
-15.4846834727 0.834605
-14.9851805558 0.705588
-14.4856774389 0.531225
-13.986174122 0.396737
-13.4866706051 0.281049
-12.9871668882 0.186041
-12.4876629712 0.182296
-11.9881588542 0.187869
-11.4886545371 0.148826
-10.98915002 0.15079
-10.4896453028 0.137618
-9.99014038545 0.079194
-9.49063526802 0.0142455
-8.99112995047 0
-8.49162443279 0.0150497
-7.99211871496 0.00817005
-7.49261279698 0.00177431
-6.99310667883 0.00967164
-6.49360036049 0.0471905
-5.99409384196 0.109298
-5.49458712323 0.128007
-4.99508020427 0.134738
-4.49557308508 0.151174
-3.99606576565 0.185912
-3.49655824597 0.232764
-2.99705052602 0.285861
-2.49754260579 0.314521
-1.99803448526 0.31887
-1.49852616443 0.281399
-0.999017643288 0.268271
-0.499508921815 0.317755
0 0.393417
0.499509122167 0.468191
0.9990184447 0.517861
1.49852796761 0.542151
1.99803769091 0.583469
2.49754761461 0.64238
2.99705773873 0.669067
3.49656806327 0.717014
3.99607858825 0.755206
4.49558931368 0.767121
4.99510023957 0.792517
5.49461136594 0.867645
5.99412269279 0.994394
6.49363422015 1.14164
6.99314594801 1.19468
7.4926578764 1.1158
7.99217000532 1.0561
8.49168233479 1.07379
8.99119486482 1.10956
9.49070759542 1.15261
9.99022052661 1.16198
10.4897336584 1.10021
10.9892469908 1.03847
11.4887605238 1.01775
11.9882742574 1.0285
12.4877881917 1.04236
12.9873023266 1.05966
13.4868166623 1.09519
13.9863311985 1.15565
14.4858459355 1.20242
14.9853608732 1.21811
15.4848760116 1.21594
15.9843913507 1.223
16.4839068906 1.23727
16.9834226312 1.20529
17.4829385726 1.13623
17.9824547148 1.08066
18.4819710577 0.961439
18.9814876015 0.803722
19.4810043461 0.624333
19.9805212914 0.472335
20.4800384377 0.381912
20.9795557847 0.338171
21.4790733327 0.32568
21.9785910815 0.320638
22.4781090312 0.306455
22.9776271818 0.290393
23.4771455333 0.291054
23.9766640857 0.302584
24.476182839 0.312562
24.9757017933 0.311923
