-24.9751632493 0.433443
-24.4756648788 0.394803
-23.9761663087 0.374819
-23.476667539 0.347869
-22.9771685697 0.334612
-22.4776694007 0.324406
-21.9781700322 0.312406
-21.478670464 0.302723
-20.9791706962 0.298541
-20.4796707287 0.299548
-19.9801705615 0.306055
-19.4806701946 0.318947
-18.9811696281 0.339994
-18.4816688618 0.335749
-17.9821678958 0.304185
-17.4826667301 0.269085
-16.9831653646 0.240256
-16.4836637994 0.233651
-15.9841620344 0.239362
-15.4846600696 0.22367
-14.985157905 0.226288
-14.4856555406 0.257433
-13.9861529764 0.305595
-13.4866502123 0.33339
-12.9871472484 0.322862
-12.4876440846 0.299735
-11.988140721 0.277525
-11.4886371575 0.272426
-10.989133394 0.359639
-10.4896294307 0.473012
-9.99012526746 0.510374
-9.49062090427 0.527677
-8.99111634114 0.480053
-8.49161157805 0.422496
-7.99210661499 0.34257
-7.49260145195 0.297352
-6.99309608891 0.303182
-6.49359052586 0.264338
-5.99408476279 0.199992
-5.4945787997 0.139709
-4.99507263655 0.106412
-4.49556627335 0.0525298
-3.99605971008 0.010876
-3.49655294674 0
-2.99704598329 0.00309464
-2.49753881975 0.000943374
-1.99803145608 0.00843701
-1.49852389229 0.011025
-0.99901612835 0.0184981
-0.499508164258 0.0403808
0 0.0809028
0.499508364437 0.113211
0.999016929064 0.144958
1.49852569389 0.148417
1.99803465894 0.108965
2.49754382421 0.0513465
2.99705318973 0.0309421
3.49656275549 0.0344392
3.99607252152 0.0441406
4.49558248783 0.0471014
4.99509265442 0.0876975
5.49460302131 0.136487
5.99411358852 0.183782
6.49362435605 0.227103
6.99313532392 0.261969
7.49264649214 0.287433
7.99215786072 0.268107
8.49166942967 0.239566
8.99118119901 0.219557
9.49069316874 0.226217
9.99020533889 0.212974
10.4897177095 0.234128
10.9892302805 0.328789
11.4887430519 0.433063
11.9882560238 0.542639
12.4877691962 0.621682
12.987282569 0.658314
13.4867961424 0.680851
13.9863099162 0.698374
14.4858238906 0.680081
14.9853380655 0.626063
15.484852441 0.614428
15.984367017 0.592515
16.4838817935 0.580602
16.9833967707 0.59046
17.4829119484 0.607243
17.9824273268 0.612858
18.4819429057 0.58119
18.9814586853 0.516567
19.4809746655 0.439758
19.9804908464 0.369121
20.480007228 0.326978
20.9795238102 0.360154
21.4790405931 0.445791
21.9785575767 0.501919
22.478074761 0.530464
22.977592146 0.572807
23.4771097318 0.530875
23.9766275183 0.472695
24.4761455056 0.387679
24.9756636936 0.267217
