-24.9782943452 1.02553
-24.4787331364 0.949793
-23.9791717368 0.888937
-23.4796101465 0.867166
-22.9800483653 0.830938
-22.4804863934 0.821817
-21.9809242306 0.83666
-21.481361877 0.838628
-20.9817993326 0.834247
-20.4822365973 0.842758
-19.9826736712 0.85695
-19.4831105542 0.871294
-18.9835472463 0.867651
-18.4839837476 0.854193
-17.9844200579 0.864012
-17.4848561773 0.892724
-16.9852921058 0.94103
-16.4857278434 0.955588
-15.9861633901 0.923982
-15.4865987457 0.899691
-14.9870339104 0.836413
-14.4874688842 0.813033
-13.9879036669 0.811532
-13.4883382587 0.793359
-12.9887726594 0.767212
-12.4892068692 0.731819
-11.9896408879 0.677582
-11.4900747155 0.604975
-10.9905083521 0.539353
-10.4909417977 0.512487
-9.99137505217 0.414012
-9.49180811557 0.340982
-8.99224098787 0.346634
-8.49267366906 0.35866
-7.99310615914 0.349963
-7.4935384581 0.334943
-6.99397056591 0.318802
-6.49440248258 0.294955
-5.9948342081 0.264736
-5.49526574244 0.219843
-4.9956970856 0.193137
-4.49612823757 0.210466
-3.99655919835 0.2552
-3.49698996791 0.321749
-2.99742054624 0.370155
-2.49785093335 0.396275
-1.99828112921 0.376196
-1.49871113381 0.343493
-0.999140947156 0.310617
-0.499570569222 0.277857
0 0.198298
0.499570760518 0.13781
0.999141712345 0.0822984
1.49871285549 0.0305685
1.99828418996 0.00137381
2.49785571578 0
2.99742743294 0.00621934
3.49699934147 0.014141
3.99657144136 0.0276977
4.49614373264 0.0397565
4.99571621531 0.040722
5.49528888939 0.03534
5.99486175488 0.0243842
6.49443481179 0.0180867
6.99400806014 0.00941577
7.49358149994 0.00991632
7.99315513119 0.0162689
8.49272895391 0.0269562
8.99230296811 0.0385398
9.49187717379 0.0471901
9.99145157098 0.0557307
10.4910261597 0.0477766
10.9906009399 0.068835
11.4901759116 0.110391
11.9897510749 0.152908
12.4893264297 0.171192
12.9889019761 0.188748
13.4884777141 0.238316
13.9880536437 0.344056
14.4876297648 0.392895
14.9872060776 0.418145
15.4867825819 0.440234
15.9863592779 0.477038
16.4859361656 0.511072
16.9855132448 0.566159
17.4850905158 0.622544
17.9846679784 0.703407
18.4842456326 0.779706
18.9838234786 0.841238
19.4834015163 0.901001
19.9829797457 0.977828
20.4825581667 1.05784
20.9821367796 1.13069
21.4817155841 1.18516
21.9812945805 1.23357
22.4808737685 1.28756
22.9804531484 1.34506
23.48003272 1.41202
23.9796124834 1.45961
24.4791924387 1.56303
24.9787725857 1.68275
