-24.9783145736 1.35364
-24.4787529624 1.27683
-23.9791911604 1.20077
-23.4796291676 1.10475
-22.9800669838 1.00942
-22.4805046091 0.908522
-21.9809420436 0.853176
-21.4813792871 0.822924
-20.9818163397 0.794073
-20.4822532014 0.787307
-19.9826898721 0.784658
-19.4831263518 0.781151
-18.9835626406 0.767458
-18.4839987384 0.762028
-17.9844346453 0.775244
-17.4848703611 0.785616
-16.9853058859 0.777223
-16.4857412197 0.796165
-15.9861763624 0.778157
-15.4866113141 0.713321
-14.9870460748 0.683235
-14.4874806443 0.678472
-13.9879150228 0.668316
-13.4883492103 0.651184
-12.9887832066 0.614891
-12.4892170118 0.566501
-11.9896506259 0.562587
-11.4900840488 0.585095
-10.9905172806 0.595156
-10.4909503213 0.579757
-9.99138317081 0.528768
-9.49181582913 0.486072
-8.99224829627 0.422234
-8.49268057222 0.307683
-7.99311265696 0.269968
-7.49354455048 0.242474
-6.99397625277 0.205765
-6.49440776383 0.177145
-5.99483908364 0.170338
-5.49527021218 0.16085
-4.99570114946 0.157337
-4.49613189546 0.148312
-3.99656245016 0.134963
-3.49699281356 0.113338
-2.99742298565 0.087421
-2.49785296641 0.0637882
-1.99828275584 0.0600898
-1.49871235393 0.0933218
-0.999141760655 0.110088
-0.499570976017 0.127426
0 0.104332
0.499571167404 0.0614831
0.999142526206 0.00735868
1.49871407642 0
1.99828581805 0.0073744
2.49785775111 0.0198835
2.99742987561 0.0157654
3.49700219157 0.0102283
3.99657469898 0.0116385
4.49614739787 0.038076
4.99572028825 0.0716193
5.49529337011 0.096918
5.99486664349 0.0917317
6.49444010837 0.0651366
6.99401376479 0.0502423
7.49358761274 0.0590108
7.99316165223 0.0536359
8.49273588329 0.0643047
8.99231030591 0.103008
9.49188492011 0.159709
9.99145972591 0.237464
10.4910347233 0.327101
10.9906099123 0.372272
11.4901852929 0.379581
11.9897608652 0.400816
12.4893366291 0.444465
12.9889125846 0.487917
13.4884887318 0.511818
13.9880650707 0.541637
14.4876416013 0.555668
14.9872183236 0.570417
15.4867952375 0.594616
15.9863723432 0.608861
16.4859496406 0.638801
16.9855271298 0.673074
17.4851048107 0.68453
17.9846826833 0.698821
18.4842607477 0.711128
18.9838390039 0.720192
19.4834174519 0.756515
19.9829960917 0.814037
20.4825749233 0.891352
20.9821539467 0.979109
21.481733162 1.06226
21.9813125691 1.12887
22.480892168 1.17324
22.9804719588 1.2225
23.4800519415 1.32748
23.9796321161 1.31731
24.4792124825 1.30624
24.9787930409 1.30918
