-24.932035177 0.787183
-24.4334012788 0.785703
-23.9347671033 0.783886
-23.4361326506 0.767943
-22.9374979206 0.745304
-22.4388629132 0.746817
-21.9402276285 0.748678
-21.4415920664 0.758286
-20.9429562268 0.786579
-20.4443201098 0.817249
-19.9456837153 0.873005
-19.4470470433 0.906001
-18.9484100937 0.878323
-18.4497728665 0.892799
-17.9511353616 0.912388
-17.4524975791 0.93692
-16.9538595189 0.977158
-16.455221181 1.00277
-15.9565825652 1.00011
-15.4579436717 0.992647
-14.9593045004 0.989556
-14.4606650512 0.922688
-13.962025324 0.868182
-13.463385319 0.829529
-12.964745036 0.790556
-12.4661044749 0.743188
-11.9674636359 0.700927
-11.4688225187 0.658841
-10.9701811235 0.626499
-10.4715394501 0.572854
-9.97289749855 0.509184
-9.47425526879 0.500927
-8.9756127608 0.490253
-8.47696997453 0.476726
-7.97832690996 0.455653
-7.47968356705 0.454707
-6.98103994577 0.444112
-6.48239604609 0.455057
-5.98375186796 0.488586
-5.48510741136 0.518869
-4.98646267626 0.545414
-4.48781766261 0.58399
-3.98917237039 0.604461
-3.49052679957 0.519917
-2.9918809501 0.417726
-2.49323482197 0.351867
-1.99458841512 0.302186
-1.49594172953 0.265161
-0.997294765174 0.259645
-0.498647522008 0.256377
0 0.259688
0.498647800882 0.267898
0.997295880671 0.278307
1.4959442394 0.281158
1.9945928771 0.267894
2.49324179382 0.252724
2.99189098957 0.243447
3.4905404644 0.256971
3.98919021833 0.296002
4.48784025141 0.324869
4.98649056366 0.356506
5.48514115511 0.380313
5.98379202581 0.410942
6.48244317579 0.433839
6.98109460507 0.449435
7.47974631369 0.453297
7.97839830169 0.50281
8.47705056909 0.502067
8.97570311593 0.487814
9.47435594225 0.500282
9.97300904808 0.520319
10.4716624334 0.542149
10.9703160984 0.563438
11.4689700429 0.587443
11.9676242671 0.646715
12.466278771 0.729286
12.9649335546 0.774175
13.4635886179 0.810861
13.962243961 0.846278
14.4608995838 0.861941
14.9595554866 0.870534
15.4582116692 0.866794
15.9568681317 0.868055
16.4555248741 0.881827
16.9541818966 0.884873
17.452839199 0.868848
17.9514967814 0.826673
18.450154644 0.770857
18.9488127866 0.67161
19.4474712094 0.545502
19.9461299124 0.405331
20.4447888955 0.287142
20.9434481589 0.177588
21.4421077026 0.0764267
21.9407675265 0.0400745
22.4394276309 0.0170442
22.9380880155 0
23.4367486806 0.00996041
23.9354096261 0.0250459
24.4340708521 0.0232676
24.9327323586 0.025939
