-24.9306191283 1.4949
-24.4320134681 1.4765
-23.933407534 1.47115
-23.4348013261 1.47478
-22.9361948443 1.43914
-22.4375880886 1.41699
-21.9389810589 1.41805
-21.4403737551 1.42471
-20.9417661774 1.41535
-20.4431583256 1.4328
-19.9445501996 1.45509
-19.4459417995 1.4586
-18.9473331253 1.47438
-18.4487241768 1.43907
-17.9501149541 1.41397
-17.4515054571 1.42271
-16.9528956858 1.44456
-16.4542856402 1.36516
-15.9556753201 1.30892
-15.4570647257 1.27478
-14.9584538568 1.24318
-14.4598427134 1.19593
-13.9612312955 1.1481
-13.462619603 1.09491
-12.964007636 1.02809
-12.4653953943 0.986004
-11.9667828779 0.967474
-11.4681700869 0.940572
-10.9695570212 0.911361
-10.4709436807 0.885094
-9.97233006537 0.846529
-9.47371617524 0.868975
-8.97510201025 0.868252
-8.47648757036 0.861435
-7.97787285555 0.823597
-7.47925786576 0.857839
-6.98064260098 0.942647
-6.48202706117 0.955307
-5.98341124628 0.972246
-5.4847951563 0.935955
-4.98617879118 0.871685
-4.48756215089 0.849689
-3.9889452354 0.756725
-3.49032804466 0.671208
-2.99171057866 0.605396
-2.49309283735 0.545664
-1.9944748207 0.482004
-1.49585652867 0.431129
-0.997237961234 0.376343
-0.498619118356 0.310777
0 0.258473
0.498619393866 0.208832
0.997239063278 0.159936
1.49585900827 0.113274
1.99447922887 0.0852298
2.49309972513 0.0525242
2.99172049706 0.0250468
3.49034154471 0
3.98896286811 0.0191285
4.48758446729 0.0956885
4.98620634229 0.146194
5.48482849314 0.165261
5.98345091988 0.19919
6.48207362254 0.259417
6.98069660115 0.307364
7.47931985575 0.289702
7.97794338637 0.217575
8.47656719305 0.130785
8.97519127581 0.0640276
9.47381563471 0.0446266
9.97244026975 0.0357085
10.471065181 0.0304627
10.9696903685 0.0474132
11.4683158322 0.0784529
11.9669415722 0.118151
12.4655675885 0.171136
12.9641938813 0.243658
13.4628204504 0.330904
13.9614472959 0.435715
14.4600744179 0.521738
14.9587018164 0.589002
15.4573294914 0.643774
15.955957443 0.676788
16.4545856712 0.7033
16.953214176 0.725168
17.4518429575 0.722546
17.9504720157 0.705182
18.4491013506 0.685097
18.9477309623 0.633268
19.4463608508 0.545543
19.9449910161 0.482389
20.4436214583 0.432137
20.9422521774 0.398119
21.4408831734 0.397302
21.9395144464 0.482187
22.4381459964 0.530862
22.9367778235 0.580616
23.4354099276 0.615865
23.9340423088 0.646356
24.4326749672 0.687107
24.9313079027 0.765629
