-24.9417699464 1.68966
-24.4429408338 1.69017
-23.944111465 1.66758
-23.4452818401 1.64903
-22.946451959 1.6222
-22.4476218217 1.59994
-21.9487914282 1.57686
-21.4499607784 1.5471
-20.9511298723 1.53717
-20.4522987099 1.49957
-19.9534672911 1.45084
-19.454635616 1.4357
-18.9558036844 1.41837
-18.4569714964 1.37937
-17.9581390519 1.34789
-17.459306351 1.33426
-16.9604733935 1.33886
-16.4616401794 1.32267
-15.9628067088 1.29251
-15.4639729816 1.19613
-14.9651389977 1.08475
-14.4663047571 0.997907
-13.9674702599 0.952892
-13.4686355059 0.982463
-12.9698004951 0.945347
-12.4709652276 0.878878
-11.9721297033 0.835713
-11.4732939221 0.793958
-10.974457884 0.754224
-10.4756215891 0.740868
-9.97678503717 0.722672
-9.47794822832 0.690109
-8.97911116249 0.65519
-8.48027383964 0.611022
-7.98143625975 0.56346
-7.48259842278 0.531976
-6.98376032871 0.533051
-6.48492197752 0.547502
-5.98608336916 0.560872
-5.48724450361 0.539766
-4.98840538085 0.499893
-4.48956600084 0.4645
-3.99072636356 0.435104
-3.49188646898 0.395664
-2.99304631706 0.376216
-2.49420590778 0.397841
-1.99536524112 0.405008
-1.49652431704 0.358137
-0.997683135508 0.25751
-0.498841696506 0.159013
0 0.0615701
0.498841954038 0.034261
0.997684165636 0.0438524
1.49652663482 0.0149106
1.99536936163 0.00375814
2.49421234608 0
2.99305558821 0.0117319
3.49189908803 0.012537
3.9907428456 0.0303823
4.48958686092 0.0830443
4.98843113403 0.0842102
5.48727566496 0.0698825
5.98612045374 0.0822722
6.48496550039 0.0974366
6.98381080494 0.13742
7.48265636742 0.170255
7.98150218787 0.294683
8.48034826631 0.402495
8.97919460276 0.439034
9.47804119726 0.546149
9.97688804983 0.652913
10.4757351605 0.69435
10.9745825293 0.676503
11.4734301563 0.612878
11.9722780414 0.537928
12.4711261848 0.526663
12.9699745864 0.502156
13.4688232463 0.435404
13.9676721645 0.332729
14.466521341 0.254698
14.9653707759 0.182392
15.4642204692 0.112883
15.9630704209 0.0918326
16.461920631 0.0920979
16.9607710996 0.0980162
17.4596218267 0.123046
17.9584728124 0.189182
18.4573240566 0.288302
18.9561755593 0.306009
19.4550273207 0.29164
19.9538793408 0.32913
20.4527316195 0.337207
20.9515841569 0.32169
21.450436953 0.394781
21.9492900079 0.487234
22.4481433216 0.581696
22.9469968941 0.658701
23.4458507254 0.725696
23.9447048156 0.795424
24.4435591647 0.873125
24.9424137728 0.926858
