-24.9313797294 0.559586
-24.4327589004 0.515307
-23.9341377957 0.479896
-23.4355164154 0.509456
-22.9368947594 0.521756
-22.4382728277 0.561201
-21.9396506203 0.643939
-21.4410281371 0.656809
-20.9424053781 0.60384
-20.4437823433 0.618211
-19.9451590326 0.66135
-19.446535446 0.70665
-18.9479115834 0.689811
-18.4492874449 0.62632
-17.9506630304 0.54027
-17.4520383398 0.458689
-16.9534133732 0.42404
-16.4547881304 0.38668
-15.9561626115 0.358383
-15.4575368164 0.334041
-14.9589107451 0.3271
-14.4602843976 0.354415
-13.9616577738 0.397019
-13.4630308736 0.376718
-12.9644036972 0.333985
-12.4657762443 0.335589
-11.967148515 0.325401
-11.4685205093 0.264633
-10.9698922271 0.201135
-10.4712636684 0.189007
-9.97263483313 0.188927
-9.47400572127 0.198936
-8.9753763328 0.202548
-8.47674666767 0.204279
-7.97811672586 0.199736
-7.47948650733 0.218635
-6.98085601204 0.255801
-6.48222523997 0.265484
-5.98359419108 0.274055
-5.48496286533 0.260954
-4.98633126269 0.249703
-4.48769938313 0.253614
-3.98906722661 0.219295
-3.49043479311 0.175214
-2.99180208258 0.134148
-2.49316909499 0.110346
-1.99453583031 0.0928951
-1.4959022885 0.0715329
-0.99726846954 0.0458733
-0.498634373383 0.0331935
0 0.0234059
0.498634650643 0.00976576
0.99726957858 0
1.49590478385 0.00767096
1.99454026647 0.0153477
2.49317602649 0.0182415
2.99181206394 0.0232193
3.49044837885 0.0283983
3.98908497126 0.0329432
4.4877218412 0.0334017
4.9863589887 0.0313654
5.4849964138 0.0333425
5.98363411653 0.0859736
6.48227209692 0.188412
6.98091035501 0.310209
7.47954889084 0.432702
7.97818770443 0.570243
8.47682679581 0.65204
8.97546616503 0.694264
9.47410581212 0.705547
9.9727457371 0.707014
10.47138594 0.707445
10.9700264209 0.702588
11.4686671798 0.705495
11.9673082167 0.717087
12.4659495317 0.731899
12.9645911248 0.74103
13.463232996 0.754461
13.9618751454 0.760026
14.460517573 0.745969
14.9591602788 0.733086
15.4578032629 0.725413
15.9564465253 0.712126
16.4550900661 0.692588
16.9537338852 0.674202
17.4523779827 0.660349
17.9510223586 0.647421
18.449667013 0.632694
18.9483119459 0.617201
19.4469571574 0.601468
19.9456026474 0.58653
20.444248416 0.582477
20.9428944633 0.575815
21.4415407892 0.568617
21.9401873939 0.564241
22.4388342772 0.572535
22.9374814394 0.563096
23.4361288803 0.547722
23.9347766001 0.541329
24.4334245988 0.534505
24.9320728764 0.526823
