-24.9652672774 0.52523
-24.4659672882 0.540692
-23.9666670806 0.563255
-23.4673666546 0.541754
-22.9680660103 0.475252
-22.4687651475 0.440683
-21.9694640664 0.424652
-21.4701627668 0.417843
-20.9708612487 0.401824
-20.4715595122 0.376632
-19.9722575572 0.312003
-19.4729553837 0.24417
-18.9736529917 0.204075
-18.4743503811 0.205923
-17.975047552 0.198444
-17.4757445043 0.192428
-16.976441238 0.190902
-16.4771377531 0.186016
-15.9778340496 0.182652
-15.4785301274 0.176837
-14.9792259866 0.166968
-14.4799216271 0.168853
-13.9806170489 0.166825
-13.481312252 0.147725
-12.9820072363 0.159008
-12.482702002 0.191444
-11.9833965488 0.205604
-11.4840908769 0.200503
-10.9847849862 0.178473
-10.4854788767 0.201302
-9.9861725483 0.20913
-9.48686600108 0.237018
-8.98755923501 0.327702
-8.48825225005 0.37347
-7.98894504618 0.39544
-7.48963762341 0.421451
-6.99032998169 0.444287
-6.49102212103 0.455914
-5.9917140414 0.445866
-5.49240574278 0.433902
-4.99309722516 0.425407
-4.49378848851 0.393018
-3.99447953283 0.40303
-3.4951703581 0.422118
-2.99586096429 0.427345
-2.4965513514 0.407484
-1.9972415194 0.372281
-1.49793146828 0.326433
-0.998621198014 0.279717
-0.499310708595 0.207594
0 0.181497
0.499310927785 0.165812
0.998622074778 0.118505
1.497933441 0.0592459
1.99724502646 0.0333225
2.49655683118 0.0228309
2.99586885518 0.0161122
3.49518109847 0.0117493
3.99449356107 0.00402426
4.49380624299 0.00848574
4.99311914427 0.00650782
5.4924322649 0.00151066
5.99174560492 0
6.49105916432 0.0006586
6.99037294315 0.00184128
7.4896869414 0.0016767
7.9890011591 0.0097189
8.48831559626 0.0342643
8.9876302529 0.0443597
9.48694512904 0.0472943
9.98626022469 0.0999037
10.4855755399 0.199811
10.9848910746 0.288101
11.4842068289 0.3615
11.9835228028 0.409268
12.4828389963 0.446848
12.9821554094 0.480354
13.4814720421 0.576547
13.9807888945 0.67891
14.4801059665 0.793083
14.9794232583 0.929689
15.4787407697 1.02805
15.9780585009 1.10223
16.4773764517 1.18294
16.9766946224 1.25308
17.4760130128 1.20905
17.975331623 1.14515
18.474650453 1.09819
18.9739695028 1.03877
19.4732887724 0.988569
19.9726082619 0.940052
20.4719279713 0.888708
20.9712479006 0.8828
21.4705680497 0.916025
21.9698884188 0.862945
22.4692090078 0.766419
22.9685298168 0.707371
23.4678508457 0.653653
23.9671720947 0.561221
24.4664935636 0.553136
24.9658152526 0.623608
