-24.932690578 0.471155
-24.4340434657 0.471213
-23.9353960805 0.487207
-23.4367484224 0.509031
-22.9381004913 0.508091
-22.4394522872 0.484814
-21.9408038101 0.468043
-21.4421550598 0.460513
-20.9435060365 0.467845
-20.44485674 0.483935
-19.9462071704 0.500072
-19.4475573275 0.515998
-18.9489072115 0.525227
-18.4502568221 0.53758
-17.9516061594 0.553942
-17.4529552234 0.573271
-16.954304014 0.591361
-16.4556525312 0.592141
-15.957000775 0.562614
-15.4583487453 0.512392
-14.9596964421 0.486864
-14.4610438653 0.488715
-13.962391015 0.484368
-13.463737891 0.476467
-12.9650844935 0.461668
-12.4664308222 0.442369
-11.9677768773 0.423506
-11.4691226586 0.405779
-10.9704681661 0.373564
-10.4718133998 0.383876
-9.97315835971 0.379969
-9.47450304572 0.377788
-8.97584745783 0.368581
-8.477191596 0.355676
-7.97853546019 0.311223
-7.47987905038 0.27856
-6.98122236653 0.261368
-6.48256540861 0.2384
-5.98390817658 0.190551
-5.48525067042 0.148644
-4.98659289008 0.14538
-4.48793483554 0.154765
-3.98927650676 0.137467
-3.49061790371 0.134516
-2.99195902636 0.141693
-2.49329987467 0.146557
-1.99464044861 0.142192
-1.49598074814 0.129757
-0.997320773242 0.118506
-0.498660523872 0.113915
0 0.12529
0.498660798408 0.13208
0.997321871385 0.139659
1.49598321896 0.144859
1.99464484118 0.141606
2.49330673806 0.153589
2.99196890964 0.207026
3.49063135596 0.288619
3.98929407704 0.371252
4.48795707293 0.391133
4.98662034364 0.40112
5.48528388922 0.395721
5.98394770971 0.389225
6.48261180512 0.394093
6.9812761755 0.44719
7.47994082088 0.513382
7.97860574129 0.562355
8.47727093676 0.595108
8.97593640733 0.598749
9.47460215303 0.57344
9.97326817389 0.545954
10.4719344699 0.523259
10.9706010412 0.520224
11.4692678878 0.508787
11.9679350096 0.499767
12.4666024068 0.492959
12.9652700793 0.509991
13.4639380273 0.541275
13.9626062506 0.56484
14.4612747494 0.584669
14.9599435237 0.629348
15.4586125735 0.678328
15.9572818989 0.73053
16.4559514999 0.761628
16.9546213765 0.77582
17.4532915288 0.764111
17.9519619567 0.679464
18.4506326604 0.499017
18.9493036398 0.35262
19.447974895 0.264196
19.946646426 0.157251
20.4453182329 0.0777984
20.9439903157 0.0490723
21.4426626744 0.051912
21.941335309 0.0512975
22.4400082197 0.0458092
22.9386814063 0.0364621
23.437354869 0.0256751
23.9360286078 0
24.4347026227 0.0692716
24.9333769137 0.313914
