-24.9411308405 0.612386
-24.4423145384 0.702604
-23.9434979791 0.789239
-23.4446811624 0.879072
-22.9458640884 0.921865
-22.4470467571 0.950129
-21.9482291683 0.984007
-21.4494113221 1.10666
-20.9505932185 1.26673
-20.4517748574 1.39557
-19.9529562388 1.39287
-19.4541373626 1.49826
-18.9553182289 1.55629
-18.4564988375 1.58555
-17.9576791886 1.57884
-17.458859282 1.54771
-16.9600391177 1.54061
-16.4612186956 1.48744
-15.9623980159 1.42373
-15.4635770783 1.37411
-14.964755883 1.34003
-14.4659344298 1.33353
-13.9671127188 1.33784
-13.4682907499 1.30909
-12.969468523 1.24259
-12.4706460382 1.20184
-11.9718232954 1.18327
-11.4730002947 1.16623
-10.9741770358 1.12912
-10.475353519 1.08789
-9.97652974398 1.04039
-9.47770571089 0.986359
-8.97888141964 0.935143
-8.4800568702 0.88872
-7.98123206256 0.841383
-7.48240699668 0.784085
-6.98358167253 0.720602
-6.48475609008 0.694297
-5.98593024931 0.660661
-5.48710415018 0.636299
-4.98827779266 0.641304
-4.48945117674 0.622437
-3.99062430237 0.641211
-3.49179716952 0.618372
-2.99296977818 0.54725
-2.49414212831 0.480078
-1.99531421988 0.441168
-1.49648605286 0.41945
-0.997657627232 0.37967
-0.498828942953 0.351943
0 0.314691
0.498829201656 0.243834
0.997658662044 0.164366
1.49648838119 0.0972372
1.99531835913 0.0578564
2.49414859589 0.0241422
2.99297909149 0
3.49180984598 0.00489749
3.99064085936 0.0143165
4.48947213168 0.0417416
4.98830366297 0.0691503
5.48713545325 0.0591293
5.98596750255 0.0505373
6.48479981089 0.0570623
6.98363237832 0.0798907
7.48246520485 0.168269
7.98129829053 0.216088
8.48013163536 0.247853
8.97896523939 0.28661
9.47779910264 0.348283
9.97663322515 0.510076
10.4754676069 0.745207
10.974302248 0.892086
11.4731371485 0.997042
11.9719723083 1.03643
12.4708077275 1.05082
12.9696434061 1.07167
13.4684793441 1.11619
13.9673155417 1.15276
14.4661519988 1.07747
14.9649887154 0.923549
15.4638256915 0.693754
15.9626629273 0.478473
16.4615004227 0.441862
16.9603381778 0.420806
17.4591761925 0.389116
17.9580144669 0.40352
18.4568530011 0.404365
18.9556917951 0.396497
19.4545308488 0.36675
19.9533701624 0.395997
20.4522097359 0.51619
20.9510495692 0.629666
21.4498896624 0.699378
21.9487300156 0.683026
22.4475706287 0.559114
22.9464115019 0.456737
23.445252635 0.369495
23.9440940283 0.291867
24.4429356816 0.219512
24.941777595 0.195214
