-24.9753328655 0.82642
-24.4758311219 0.800886
-23.9763291779 0.773781
-23.4768270336 0.695761
-22.9773246889 0.651476
-22.4778221437 0.676862
-21.9783193982 0.704915
-21.4788164522 0.701927
-20.9793133059 0.666808
-20.479809959 0.633953
-19.9803064117 0.60809
-19.4808026639 0.600696
-18.9812987157 0.560654
-18.4817945669 0.492334
-17.9822902176 0.438837
-17.4827856678 0.416572
-16.9832809175 0.415284
-16.4837759666 0.415084
-15.9842708151 0.410704
-15.4847654631 0.411228
-14.9852599105 0.41581
-14.4857541573 0.412466
-13.9862482035 0.404575
-13.4867420491 0.39305
-12.987235694 0.368123
-12.4877291383 0.348356
-11.988222382 0.338674
-11.4887154249 0.333616
-10.9892082672 0.349042
-10.4897009088 0.344657
-9.99019334968 0.343519
-9.49068558984 0.362899
-8.99117762927 0.357808
-8.49166946795 0.36429
-7.99216110588 0.389103
-7.49265254304 0.39531
-6.99314377942 0.361324
-6.49363481501 0.327589
-5.99412564979 0.305105
-5.49461628376 0.274607
-4.9951067169 0.264468
-4.4955969492 0.247691
-3.99608698064 0.210626
-3.49657681122 0.162539
-2.99706644091 0.121975
-2.49755586972 0.0948126
-1.99804509763 0.0774064
-1.49853412463 0.0535664
-0.999022950692 0.0270404
-0.499511575822 0.0205452
0 0.0291989
0.499511776784 0.0429771
0.999023754543 0.0287014
1.49853593329 0.0205787
1.99804831303 0.00961385
2.49756089379 0.00146754
2.99707367557 0
3.49658665838 0.000776786
3.99609984225 0.0100133
4.49561322717 0.0226525
4.99512681316 0.0374467
5.49464060024 0.0515496
5.99415458841 0.0776453
6.49366877769 0.105709
6.99318316809 0.126122
7.49269775962 0.140866
7.9922125523 0.16481
8.49172754613 0.198055
8.99124274113 0.222323
9.49075813731 0.245778
9.99027373468 0.274961
10.4897895333 0.324719
10.989305533 0.399691
11.4888217341 0.484429
11.9883381363 0.571212
12.4878547398 0.663212
12.9873715446 0.745568
13.4868885507 0.790704
13.986405758 0.804492
14.4859231666 0.796806
14.9854407766 0.787716
15.4849585879 0.765104
15.9844766005 0.742422
16.4839948144 0.729575
16.9835132298 0.710847
17.4830318465 0.6769
17.9825506645 0.660582
18.482069684 0.647002
18.9815889049 0.635959
19.4811083272 0.624255
19.9806279509 0.619853
20.4801477761 0.630922
20.9796678027 0.658409
21.4791880308 0.684975
21.9787084604 0.726469
22.4782290915 0.754229
22.977749924 0.773948
23.4772709581 0.771021
23.9767921937 0.754156
24.4763136309 0.76243
24.9758352696 0.799278
