-24.9320371296 0.302965
-24.4334031927 0.35617
-23.9347689784 0.421902
-23.4361344869 0.490361
-22.9374997181 0.558967
-22.438864672 0.612397
-21.9402293485 0.673278
-21.4415937475 0.713281
-20.9429578692 0.726927
-20.4443217133 0.732228
-19.9456852799 0.751431
-19.447048569 0.743598
-18.9484115805 0.733588
-18.4497743144 0.731703
-17.9511367707 0.724294
-17.4524989493 0.727774
-16.9538608501 0.729712
-16.4552224732 0.703308
-15.9565838186 0.675108
-15.4579448861 0.641925
-14.9593056757 0.616026
-14.4606661875 0.602128
-13.9620264214 0.591154
-13.4633863773 0.564153
-12.9647460553 0.530803
-12.4661054552 0.512745
-11.967464577 0.497734
-11.4688234208 0.482694
-10.9701819865 0.47594
-10.471540274 0.470433
-9.97289828338 0.461526
-9.4742560145 0.445917
-8.97561346737 0.43107
-8.47697064196 0.420061
-7.97832753823 0.407362
-7.47968415615 0.393989
-6.98104049568 0.384278
-6.4823965568 0.36195
-5.98375233946 0.312734
-5.48510784364 0.280851
-4.9864630693 0.242426
-4.48781801641 0.143579
-3.98917268493 0.059176
-3.49052707483 0.0380576
-2.99188118608 0.0377292
-2.49323501864 0.042394
-1.99458857249 0.045054
-1.49594184758 0.0474177
-0.997294843883 0.04828
-0.498647561368 0.0493057
0 0.0586046
0.498647840255 0.0664809
0.99729595943 0.0731746
1.49594435756 0.0836253
1.99459303467 0.0905896
2.49324199081 0.0889111
2.991891226 0.0823491
3.49054074027 0.0709382
3.98919053367 0.0647391
4.48784060622 0.0676968
4.98649095796 0.0776211
5.48514158891 0.08547
5.98379249912 0.0709987
6.48244368862 0.0418489
6.98109515744 0.0738361
7.47974690561 0.105149
7.97839893317 0.113115
8.47705124015 0.0975701
8.97570382658 0.0762766
9.4743566925 0.0590481
9.97300983794 0.042894
10.4716632629 0.0266827
10.9703169675 0.010655
11.4689709517 0.000924543
11.9676252156 0
12.4662797591 0.00770747
12.9649345824 0.0348272
13.4635896854 0.103572
13.9622450682 0.186492
14.4609007308 0.285701
14.9595566732 0.416263
15.4582128956 0.396598
15.9568693979 0.413588
16.4555261801 0.470788
16.9541832423 0.55051
17.4528405845 0.634452
17.9514982068 0.686565
18.4501561092 0.705611
18.9488142916 0.677704
19.4474727543 0.636385
19.9461314971 0.592391
20.4447905201 0.561309
20.9434498234 0.546892
21.442109407 0.54864
21.9407692709 0.571397
22.4394294151 0.625353
22.9380898397 0.676263
23.4367505447 0.712422
23.9354115302 0.713309
24.4340727962 0.68947
24.9327343427 0.667548
