-24.932035672 0.556199
-24.4334017639 0.552717
-23.9347675787 0.553124
-23.4361331161 0.547794
-22.9374983763 0.541371
-22.4388633591 0.542602
-21.9402280645 0.541549
-21.4415924926 0.526243
-20.9429566432 0.517979
-20.4443205163 0.513513
-19.945684112 0.513849
-19.4470474301 0.515612
-18.9484104706 0.512495
-18.4497732335 0.51394
-17.9511357188 0.530671
-17.4524979264 0.541355
-16.9538598564 0.545826
-16.4552215086 0.592734
-15.956582883 0.593838
-15.4579439796 0.595845
-14.9593047983 0.592196
-14.4606653392 0.582309
-13.9620256022 0.566266
-13.4633855873 0.559835
-12.9647452944 0.575824
-12.4661047234 0.590057
-11.9674638745 0.609618
-11.4688227474 0.626293
-10.9701813423 0.630779
-10.471539659 0.607393
-9.97289769751 0.597296
-9.47425545783 0.627132
-8.97561293992 0.678141
-8.47697014373 0.692005
-7.97832706923 0.703713
-7.47968371639 0.674843
-6.98104008518 0.624317
-6.48239617555 0.546387
-5.98375198749 0.481919
-5.48510752095 0.457141
-4.98646277589 0.448357
-4.4878177523 0.446393
-3.98917245013 0.425516
-3.49052686935 0.368755
-2.99188100992 0.305264
-2.49323487182 0.278785
-1.99458845501 0.269466
-1.49594175946 0.259206
-0.997294785128 0.264686
-0.498647531987 0.266288
0 0.251157
0.498647810863 0.243313
0.997295900637 0.2431
1.49594426935 0.242033
1.99459291705 0.237995
2.49324184375 0.226083
2.9918910495 0.221684
3.49054053433 0.249153
3.98919029827 0.312739
4.48784034135 0.375041
4.98649066361 0.41012
5.48514126508 0.406906
5.9837921458 0.465696
6.48244330579 0.585281
6.9810947451 0.644499
7.47974646374 0.665256
7.97839846177 0.67813
8.47705073921 0.66777
8.97570329609 0.632227
9.47435613244 0.609327
9.97300924831 0.597845
10.4716626437 0.600321
10.9703163187 0.614871
11.4689702733 0.649977
11.9676245076 0.700339
12.4662790215 0.749858
12.9649338151 0.789477
13.4635888885 0.813272
13.9622442416 0.825952
14.4608998746 0.831254
14.9595557874 0.837303
15.4582119801 0.880163
15.9568684527 0.926247
16.4555252052 0.957041
16.9541822377 0.928729
17.4528395502 0.875336
17.9514971428 0.814617
18.4501550154 0.739767
18.9488131682 0.624963
19.447471601 0.483109
19.9461303141 0.36489
20.4447893074 0.303892
20.9434485809 0.279439
21.4421081347 0.272454
21.9407679687 0.269273
22.4394280832 0.238867
22.938088478 0.194481
23.4367491532 0.115398
23.9354101088 0.0454143
24.4340713449 0.00953346
24.9327328616 0
