-24.9418284439 1.72065
-24.4429981702 1.6517
-23.9441676399 1.60122
-23.4453368532 1.57898
-22.9465058099 1.53901
-22.44767451 1.4966
-21.9488429536 1.4409
-21.4500111405 1.39051
-20.9511790708 1.37997
-20.4523467444 1.39234
-19.9535141612 1.39035
-19.4546813213 1.32997
-18.9558482247 1.25938
-18.4570148712 1.23276
-17.958181261 1.21172
-17.4593473938 1.20852
-16.9605132698 1.20658
-16.4616788889 1.21365
-15.962844251 1.21838
-15.4640093561 1.23419
-14.9651742043 1.2518
-14.4663387954 1.23577
-13.9675031294 1.19212
-13.4686672064 1.1503
-12.9698310262 1.11732
-12.4709945889 1.10065
-11.9721578944 1.0236
-11.4733209428 0.918321
-10.9744837339 0.827502
-10.4756462677 0.776426
-9.97680854422 0.773984
-9.47797056344 0.760705
-8.97913232531 0.669469
-8.48029382981 0.646394
-7.9814550769 0.593665
-7.48261606656 0.53647
-6.98377679876 0.486457
-6.48493727347 0.391404
-5.98609749066 0.286314
-5.4872574503 0.226831
-4.98841715236 0.194491
-4.48957659682 0.197332
-3.99073578365 0.169751
-3.49189471281 0.155512
-2.99305338428 0.149599
-2.49421179804 0.135344
-1.99536995404 0.113687
-1.49652785227 0.0903599
-0.997685492688 0.0600645
-0.498842875275 0.0311826
0 0.013555
0.498843133167 0.0275061
0.997686524253 0.0420921
1.49653017329 0.0383132
1.9953740803 0.0217341
2.49421824532 0.0359441
2.99306266837 0.0413637
3.49190734949 0.0452265
3.99075228869 0.0505474
4.48959748602 0.0740563
4.98844294149 0.0899379
5.48728865514 0.0843799
5.986134627 0.0372636
6.48498085709 0
6.98382734544 0.00033686
7.48267409209 0.0103224
7.98152109705 0.0125851
8.48036836036 0.052803
8.97921588205 0.15482
9.47806366214 0.261415
9.97691170067 0.386496
10.4757599977 0.51178
10.9746085531 0.648187
11.4734573671 0.77834
11.9723064397 0.89063
12.4711557708 1.01029
12.9700053605 1.11387
13.4688552089 1.13908
13.9677053159 1.12399
14.4665556816 1.10711
14.965406306 1.12705
15.4642571892 1.17601
15.9631083312 1.21005
16.4619597319 1.25486
16.9608113915 1.28548
17.4596633099 1.34779
17.9585154873 1.42924
18.4573679235 1.44645
18.9562206187 1.44133
19.4550735729 1.42854
19.953926786 1.42465
20.4527802582 1.42978
20.9516339895 1.45443
21.4504879798 1.48423
21.9493422293 1.48645
22.4481967379 1.47118
22.9470515056 1.47387
23.4459065326 1.53911
23.9447618188 1.63802
24.4436173642 1.7112
24.942473169 1.73493
