-24.9752197513 0.785706
-24.4757202572 0.812787
-23.9762205632 0.81583
-23.4767206693 0.83394
-22.9772205756 0.80365
-22.477720282 0.742341
-21.9782197886 0.703458
-21.4787190952 0.688649
-20.9792182019 0.652353
-20.4797171087 0.664425
-19.9802158156 0.703145
-19.4807143225 0.73181
-18.9812126294 0.717337
-18.4817107364 0.692387
-17.9822086434 0.65227
-17.4827063503 0.619985
-16.9832038573 0.662997
-16.4837011643 0.762277
-15.9841982712 0.839266
-15.4846951781 0.903338
-14.9851918849 0.919628
-14.4856883916 0.924518
-13.9861846982 0.900474
-13.4866808048 0.83007
-12.9871767112 0.818712
-12.4876724176 0.841139
-11.9881679237 0.727357
-11.4886632298 0.644777
-10.9891583357 0.5537
-10.4896532414 0.415786
-9.99014794689 0.252334
-9.49064245222 0.215009
-8.99113675734 0.138761
-8.49163086224 0.0715222
-7.99212476691 0.0142194
-7.49261847134 0
-6.9931119755 0.0317687
-6.4936052794 0.0712314
-5.99409838302 0.134195
-5.49459128634 0.194336
-4.99508398935 0.220629
-4.49557649205 0.227836
-3.99606879442 0.286203
-3.49656089645 0.377425
-2.99705279812 0.457239
-2.49754449942 0.512738
-1.99803600034 0.546334
-1.49852730087 0.5633
-0.999018401003 0.564251
-0.499509300716 0.557699
0 0.563835
0.499509501155 0.598343
0.999019202764 0.662293
1.49852910484 0.730257
1.99803920739 0.774069
2.49754951042 0.863951
2.99706001396 0.944547
3.49657071801 1.01341
3.99608162259 1.06475
4.49559272771 1.11101
4.99510403337 1.15227
5.4946155396 1.17682
5.9941272464 1.18221
6.49363915379 1.16614
6.99315126177 1.11232
7.49266357036 1.06389
7.99217607958 1.03546
8.49168878943 1.03654
8.99120169993 1.02549
9.49071481108 1.00443
9.99022812291 0.971702
10.4897416354 0.916488
10.9892553486 0.860244
11.4887692625 0.82403
11.9882833772 0.810873
12.4877976925 0.785216
12.9873122086 0.771377
13.4868269255 0.796755
13.9863418431 0.853694
14.4858569615 0.844002
14.9853722807 0.826087
15.4848878007 0.846308
15.9844035215 0.856724
16.4839194432 0.874451
16.9834355657 0.893832
17.482951889 0.896183
17.9824684132 0.887852
18.4819851383 0.885656
18.9815020642 0.863991
19.4810191911 0.832957
19.9805365188 0.81604
20.4800540475 0.764317
20.9795717772 0.694826
21.4790897077 0.620752
21.9786078393 0.543792
22.4781261718 0.464273
22.9776447053 0.423564
23.4771634397 0.399603
23.9766823752 0.392333
24.4762015117 0.410501
24.9757208493 0.43434
