-24.9327300496 1.01831
-24.4340821542 0.971953
-23.9354339855 0.958011
-23.4367855437 0.965346
-22.9381368287 0.91475
-22.4394878404 0.845406
-21.9408385788 0.841796
-21.4421890439 0.852915
-20.9435392356 0.842748
-20.4448891539 0.823001
-19.9462387988 0.789413
-19.4475881702 0.784651
-18.9489372681 0.7771
-18.4502860925 0.745137
-17.9516346433 0.703086
-17.4529829206 0.63718
-16.9543309242 0.615637
-16.4556786541 0.604784
-15.9570261104 0.552495
-15.4583732929 0.493312
-14.9597202016 0.460733
-14.4610668366 0.455452
-13.9624131977 0.452842
-13.463759285 0.450813
-12.9651050984 0.451656
-12.4664506378 0.474001
-11.9677959033 0.493559
-11.4691408948 0.494561
-10.9704856122 0.494172
-10.4718300556 0.495015
-9.97317422493 0.493043
-9.4745181201 0.498726
-8.97586174111 0.482142
-8.47720508793 0.458353
-7.97854816052 0.446837
-7.47989095885 0.438267
-6.98123348289 0.426074
-6.4825757326 0.420719
-5.98391770795 0.427374
-5.48525940891 0.387295
-4.98660083544 0.322872
-4.48794198751 0.282936
-3.98928286508 0.249857
-3.49062346814 0.229258
-2.99196379663 0.229856
-2.49330385053 0.212609
-1.99464362981 0.17241
-1.49598313443 0.134535
-0.997322364352 0.0604661
-0.498661319555 0.0268466
0 0.00737313
0.498661594345 0
0.997323463514 0.00205427
1.49598560754 0.0139054
1.99464802646 0.0271999
2.49331072029 0.0276727
2.99197368909 0.0292677
3.49063693287 0.0316376
3.98930045167 0.0401247
4.48796424553 0.0552176
4.98662831448 0.0831761
5.48529265854 0.11075
5.98395727776 0.117362
6.48262217217 0.145686
6.9812873418 0.216896
7.47995278668 0.298925
7.97861850684 0.391307
8.47728450233 0.52923
8.97595077316 0.725086
9.47461731938 0.95173
9.97328414102 1.05436
10.4719512381 1.09361
10.9706186107 1.10823
11.4692862588 1.00433
11.9679541824 0.84498
12.4666223816 0.699492
12.9652908564 0.537489
13.4639596069 0.45385
13.9626286331 0.370212
14.461297935 0.323559
14.9599675126 0.324547
15.458637366 0.350285
15.9573074952 0.368986
16.4559779002 0.360041
16.9546485812 0.35133
17.453319538 0.357639
17.9519907708 0.417216
18.4506622796 0.541333
18.9493340643 0.592627
19.4480061252 0.586808
19.9466784621 0.554907
20.4453510751 0.520175
20.9440239642 0.5295
21.4426971295 0.540478
21.941370571 0.513268
22.4400442888 0.535418
22.9387182828 0.628602
23.4373925531 0.831247
23.9360670998 1.01462
24.4347419228 1.18807
24.9334170223 1.30719
