-24.9751256019 0.492523
-24.4756279801 0.48779
-23.9761301588 0.487954
-23.4766321381 0.497271
-22.977133918 0.524128
-22.4776354984 0.539532
-21.9781368794 0.564729
-21.4786380609 0.61954
-20.979139043 0.632241
-20.4796398255 0.624454
-19.9801404086 0.615058
-19.4806407922 0.582788
-18.9811409762 0.573417
-18.4816409607 0.570656
-17.9821407456 0.576207
-17.482640331 0.62314
-16.9831397168 0.654468
-16.4836389031 0.683827
-15.9841378897 0.714078
-15.4846366767 0.709765
-14.9851352641 0.805125
-14.4856336519 0.866438
-13.98613184 0.913023
-13.4866298284 0.980266
-12.9871276172 1.04424
-12.4876252063 1.03192
-11.9881225957 0.999652
-11.4886197854 0.944822
-10.9891167753 0.866012
-10.4896135656 0.759338
-9.99011015605 0.727145
-9.49060654678 0.666953
-8.99110273773 0.587219
-8.4915987289 0.524741
-7.99209452027 0.47536
-7.49259011184 0.425395
-6.99308550359 0.371538
-6.4935806955 0.297934
-5.99407568757 0.216272
-5.49457047978 0.156051
-4.99506507212 0.108046
-4.49555946458 0.0790612
-3.99605365714 0.0621054
-3.4965476498 0.0359471
-2.99704144254 0.0185142
-2.49753503535 0.0109672
-1.99802842821 0.00653427
-1.49852162112 0.00756073
-0.999014614067 0.0113944
-0.499507407029 0.0096922
0 0.005558
0.499507607034 0.004832
0.999015414084 8.43541e-05
1.49852342116 0.00579167
1.99803162828 0.00978141
2.49754003546 0.00439157
2.99704864269 0.00365224
3.49655745001 0
3.99606645742 0.00325922
4.49557566492 0.0136239
4.99508507254 0.0264391
5.49459468029 0.0218123
5.99410448818 0.0270945
6.49361449621 0.0586953
6.99312470441 0.0798118
7.49263511279 0.0926127
7.99214572135 0.129819
8.49165653011 0.132991
8.99116753908 0.10905
9.49067874828 0.0758053
9.99019015771 0.0533947
10.4897017674 0.0468745
10.9892135773 0.0508318
11.4887255875 0.051586
11.988237798 0.0409199
12.4877502088 0.0275722
12.9872628199 0.0224445
13.4867756313 0.048902
13.9862886431 0.087809
14.4858018552 0.132283
14.9853152676 0.193778
15.4848288805 0.319658
15.9843426937 0.475861
16.4838567073 0.546326
16.9833709213 0.597427
17.4828853357 0.644682
17.9823999505 0.677374
18.4819147658 0.68212
18.9814297816 0.663592
19.4809449978 0.662628
19.9804604145 0.678936
20.4799760316 0.633761
20.9794918493 0.608031
21.4790078675 0.586905
21.9785240862 0.568188
22.4780405054 0.544629
22.9775571252 0.528169
23.4770739456 0.514584
23.9765909665 0.518542
24.4761081881 0.526754
24.9756256102 0.526969
