-24.9411690085 1.05956
-24.4423519489 1.17045
-23.9435346317 1.2377
-23.444717057 1.25522
-22.9458992247 1.25312
-22.4470811349 1.23392
-21.9482627873 1.20132
-21.4494441822 1.16892
-20.9506253193 1.19313
-20.4518061987 1.21697
-19.9529868204 1.2659
-19.4541671843 1.25952
-18.9553472904 1.26891
-18.4565271387 1.25876
-17.957706729 1.2228
-17.4588860615 1.19212
-16.9600651361 1.20937
-16.4612439527 1.24245
-15.9624225114 1.2591
-15.463600812 1.25085
-14.9647788546 1.21367
-14.4659566391 1.18004
-13.9671341656 1.15577
-13.4683114339 1.13162
-12.969488444 1.06379
-12.470665196 1.00268
-11.9718416897 0.938981
-11.4730179252 0.85248
-10.9741939024 0.764285
-10.4753696214 0.706824
-9.97654508198 0.670336
-9.47772028422 0.660456
-8.97889522807 0.713232
-8.48006991351 0.783541
-7.9812443405 0.754913
-7.48241850901 0.74701
-6.98359241902 0.773604
-6.4847660705 0.773024
-5.98593946342 0.706165
-5.48711259774 0.639371
-4.98828547344 0.552067
-4.4894580905 0.478105
-3.99063044887 0.420955
-3.49180254854 0.319878
-2.99297438948 0.263196
-2.49414597165 0.246973
-1.99531729502 0.215223
-1.49648835957 0.199119
-0.997659165272 0.193887
-0.498829712091 0.173757
0 0.146525
0.498829971029 0.171057
0.997660201026 0.215074
1.49649069002 0.23418
1.99532143804 0.242899
2.49415244511 0.196279
2.99298371127 0.118131
3.49181523653 0.0987555
3.99064702094 0.0984974
4.48947906452 0.105087
4.9883113673 0.0628741
5.4871439293 0.0162688
5.98597675056 0
6.48480983111 0.00961499
6.98364317097 0.0695865
7.48247677017 0.126558
7.98131062875 0.184242
8.48014474672 0.257899
8.97897912412 0.402802
9.47781376099 0.528074
9.97664865733 0.604343
10.4754838132 0.666628
10.9743192286 0.722731
11.4731549036 0.767202
11.9719908382 0.845683
12.4708270324 0.988567
12.9696634863 1.12226
13.4685001998 1.21313
13.9673371731 1.27047
14.4661744061 1.32996
14.9650118989 1.37983
15.4638496515 1.47934
15.962687664 1.55045
16.4615259363 1.66757
16.9603644684 1.65479
17.4592032605 1.59569
17.9580423126 1.54941
18.4568816246 1.53461
18.9557211967 1.52782
19.4545610287 1.47384
19.9534011208 1.39019
20.452241473 1.29471
20.9510820854 1.1993
21.4499229579 1.09182
21.9487640905 1.01293
22.4476054834 1.04455
22.9464471365 1.14741
23.4452890498 1.2837
23.9441312235 1.37221
24.4429736574 1.45173
24.9418163518 1.50395
