-24.9437933498 0.552587
-24.4449237712 0.51298
-23.9460539363 0.480522
-23.4471838452 0.537867
-22.9483134978 0.585429
-22.4494428942 0.648723
-21.9505720341 0.649905
-21.4517009177 0.647386
-20.952829545 0.668987
-20.4539579158 0.690539
-19.9550860301 0.694068
-19.456213888 0.681362
-18.9573414894 0.700364
-18.4584688343 0.699542
-17.9595959226 0.690451
-17.4607227543 0.666679
-16.9618493294 0.678531
-16.4629756479 0.688303
-15.9641017097 0.676748
-15.4652275148 0.657795
-14.9663530632 0.688632
-14.4674783548 0.698799
-13.9686033896 0.695816
-13.4697281677 0.716603
-12.9708526889 0.710074
-12.4719769532 0.654043
-11.9731009606 0.603601
-11.4742247112 0.551581
-10.9753482048 0.499591
-10.4764714414 0.468482
-9.97759442097 0.469203
-9.47871714355 0.464876
-8.97983960907 0.466231
-8.4809618175 0.463574
-7.98208376883 0.448538
-7.48320546301 0.418481
-6.98432690002 0.37323
-6.48544807984 0.327614
-5.98656900243 0.299361
-5.48768966777 0.280613
-4.98881007583 0.271017
-4.48993022658 0.272825
-3.99105012 0.263513
-3.49216975606 0.239656
-2.99328913473 0.191899
-2.49440825598 0.15601
-1.99552711979 0.132123
-1.49664572612 0.110263
-0.99776407495 0.106337
-0.498882166253 0.101129
0 0.0869662
0.498882423836 0.0609259
0.997765105283 0.0364958
1.49664804437 0.0190076
1.99553124112 0.0135037
2.49441469557 0.0124044
2.99329840774 0.032424
3.49218237765 0.0440968
3.99106660535 0.0355852
4.48995109084 0.020255
4.98883583418 0.0153524
5.48772083536 0.0266861
5.98660609444 0.0348245
6.48549161143 0.0337453
6.98437738637 0.0328429
7.48326341927 0.0247666
7.98214971017 0.0150156
8.48103625909 0.00695714
8.97992306607 0.00453648
9.47881013113 0.00254544
9.97769745429 0
10.4765850356 0.00164242
10.9754728751 0.00538335
11.4743609727 0.0110962
11.9732493286 0.017313
12.4721379427 0.0190483
12.9710268151 0.00874968
13.4699159458 0.00554512
13.9688053348 0.0233103
14.4676949821 0.0506543
14.9665848879 0.0759417
15.465475052 0.112817
15.9643654746 0.114239
16.4632561557 0.109712
16.9621470953 0.12525
17.4610382933 0.149953
17.9599297499 0.174558
18.4588214651 0.211572
18.9577134389 0.258936
19.4566056713 0.311032
19.9554981624 0.352635
20.4543909122 0.398313
20.9532839207 0.456009
21.4521771879 0.510537
21.9510707138 0.518229
22.4499644986 0.478182
22.9488585422 0.446695
23.4477528446 0.428279
23.946647406 0.427931
24.4455422262 0.425314
24.9444373053 0.416166
