-24.9327264816 0.779093
-24.434078657 0.752805
-23.9354305592 0.727648
-23.4367821882 0.725815
-22.938133544 0.724161
-22.4394846266 0.71327
-21.9408354359 0.698554
-21.4421859719 0.682801
-20.9435362346 0.654225
-20.4448862239 0.608298
-19.9462359398 0.590939
-19.4475853822 0.575967
-18.9489345512 0.536545
-18.4502834466 0.536857
-17.9516320686 0.537027
-17.4529804169 0.538908
-16.9543284917 0.541415
-16.4556762928 0.568498
-15.9570238202 0.589102
-15.4583710739 0.627335
-14.9597180539 0.675198
-14.4610647601 0.685424
-13.9624111925 0.672687
-13.4637573511 0.664597
-12.9651032358 0.664416
-12.4664488466 0.647635
-11.9677941834 0.627836
-11.4691392463 0.612985
-10.9704840352 0.60042
-10.47182855 0.599619
-9.97317279081 0.5928
-9.47451675747 0.591763
-8.97586045 0.587666
-8.47720386835 0.549531
-7.97854701249 0.498055
-7.4798898824 0.45699
-6.98123247804 0.425799
-6.48257479938 0.390435
-5.98391684638 0.340876
-5.485258619 0.289972
-4.98660011723 0.261496
-4.48794134102 0.286506
-3.98928229033 0.323699
-3.49062296515 0.210948
-2.99196336543 0.066887
-2.49330349114 0.0390406
-1.99464334225 0.0631471
-1.49598291872 0.0394023
-0.997322220526 0.0400836
-0.49866124763 0.0664661
0 0.0270009
0.498661522397 0.00329059
0.997323319596 0
1.49598539163 0.0136773
1.99464773853 0.0431441
2.49331036032 0.0749808
2.99197325706 0.107858
3.49063642875 0.0709709
3.98929987545 0.025809
4.48796359717 0.0277731
4.98662759396 0.0329753
5.48529186585 0.0316182
5.98395641287 0.0557147
6.48262123506 0.139576
6.98128633244 0.245581
7.47995170505 0.324219
7.97861735292 0.422745
8.47728327609 0.455868
8.97594947458 0.417526
9.47461594844 0.320186
9.97328269769 0.159916
10.4719497224 0.103908
10.9706170225 0.0481666
11.4692845981 0.0137682
11.9679524493 0.0567311
12.466620576 0.0993124
12.9652889783 0.130965
13.4639576563 0.140594
13.9626266099 0.138416
14.4612958391 0.146927
14.9599653441 0.170899
15.4586351249 0.21008
15.9573051815 0.24754
16.4559755138 0.347639
16.9546461221 0.461971
17.4533170062 0.461104
17.9519881662 0.441047
18.4506596022 0.441746
18.9493313142 0.440278
19.4480033022 0.429156
19.9466755662 0.415983
20.4453481063 0.400087
20.9440209226 0.39037
21.442694015 0.415391
21.9413673836 0.476537
22.4400410284 0.573564
22.9387149494 0.752098
23.4373891467 1.01828
23.9360636204 1.35028
24.4347383704 1.49016
24.9334133967 1.58322
