-24.9327085806 0.76913
-24.4340611111 0.813851
-23.9354133686 0.81853
-23.4367653531 0.808207
-22.9381170644 0.775307
-22.4394685026 0.772196
-21.9408196677 0.817349
-21.4421705596 0.847262
-20.9435211783 0.862714
-20.4448715237 0.867369
-19.9462215958 0.873137
-19.4475713946 0.888155
-18.94892092 0.90868
-18.450270172 0.933803
-17.9516191506 0.957765
-17.4529678558 0.985039
-16.9543162875 1.00553
-16.4556644456 1.02005
-15.9570123302 1.0293
-15.4583599412 1.0325
-14.9597072786 1.01476
-14.4610543423 0.985186
-13.9624011323 0.942283
-13.4637476486 0.938385
-12.9650938912 0.911669
-12.4664398599 0.884779
-11.9677855548 0.854451
-11.4691309759 0.814627
-10.9704761231 0.76318
-10.4718209964 0.717023
-9.97316559568 0.699853
-9.474509921 0.696649
-8.9758539723 0.69846
-8.47719774954 0.699699
-7.97854125269 0.707563
-7.47988448172 0.677959
-6.9812274366 0.602765
-6.48257011728 0.568898
-5.98391252375 0.558706
-5.48525465596 0.524814
-4.98659651388 0.481876
-4.48793809748 0.409575
-3.98927940673 0.348203
-3.49062044159 0.315217
-2.99196120203 0.308848
-2.49330168802 0.29154
-1.99464189952 0.23958
-1.4959818365 0.177979
-0.997321498933 0.121605
-0.498660886776 0.0813504
0 0.0663753
0.498661161428 0.0237415
0.99732259754 0
1.49598430837 0.00763714
1.99464629395 0.0133513
2.49330855432 0.0160625
2.9919710895 0.0152892
3.49063389954 0.0114102
3.98929698445 0.00360078
4.48796034428 0.0213925
4.98662397907 0.0754896
5.48528788883 0.150302
5.98395207361 0.233977
6.48261653344 0.312602
6.98128126835 0.390226
7.47994627837 0.459935
7.97861156354 0.509039
8.47727712389 0.5231
8.97594295946 0.534145
9.47460907026 0.56906
9.97327545635 0.638944
10.4719421178 0.703358
10.9706090545 0.737783
11.4692762666 0.720002
11.9679437542 0.655869
12.4666115171 0.556491
12.9652795556 0.459887
13.4639478696 0.424992
13.9626164591 0.407753
14.4612853241 0.407011
14.9599544648 0.408417
15.4586238812 0.405745
15.9572935732 0.410298
16.4559635409 0.43112
16.9546337843 0.450982
17.4533043035 0.492566
17.9519750986 0.590336
18.4506461694 0.69827
18.9493175162 0.751767
19.4479891388 0.791187
19.9466610374 0.833072
20.4453332119 0.838206
20.9440056625 0.806132
21.4426783891 0.775942
21.9413513917 0.756532
22.4400246705 0.763043
22.9386982254 0.77112
23.4373720564 0.731674
23.9360461637 0.726521
24.4347205471 0.757438
24.9333952069 0.880806
