-24.9320346774 1.06314
-24.4334007891 1.0592
-23.9347666236 1.04744
-23.4361321808 1.04827
-22.9374974607 1.05355
-22.4388624632 1.01265
-21.9402271884 0.959356
-21.4415916363 0.929352
-20.9429558067 0.891398
-20.4443196996 0.881802
-19.945683315 0.878248
-19.4470466529 0.893944
-18.9484097133 0.915101
-18.449772496 0.909457
-17.9511350011 0.878047
-17.4524972286 0.875411
-16.9538591783 0.883756
-16.4552208503 0.836941
-15.9565822446 0.810934
-15.457943361 0.785731
-14.9593041997 0.751306
-14.4606647604 0.74598
-13.9620250433 0.728601
-13.4633850482 0.704459
-12.9647447752 0.691585
-12.4661042241 0.697541
-11.9674633951 0.703986
-11.4688222879 0.717346
-10.9701809027 0.757603
-10.4715392393 0.785168
-9.97289729775 0.808273
-9.47425507801 0.797224
-8.97561258003 0.782188
-8.47696980378 0.815086
-7.97832674923 0.834843
-7.47968341634 0.819607
-6.98103980508 0.798154
-6.48239591543 0.790253
-5.98375174733 0.776348
-5.48510730077 0.75102
-4.9864625757 0.698278
-4.4878175721 0.633711
-3.98917228992 0.554502
-3.49052672914 0.488129
-2.99188088973 0.414966
-2.49323477165 0.38585
-1.99458837486 0.329334
-1.49594169933 0.301062
-0.997294745038 0.302318
-0.498647511938 0.309055
0 0.321793
0.498647790807 0.328231
0.99729586052 0.326452
1.49594420917 0.321479
1.99459283679 0.311892
2.49324174342 0.302668
2.99189092908 0.298842
3.49054039381 0.309051
3.98919013765 0.326692
4.48784016063 0.343129
4.98649046278 0.366663
5.48514104413 0.413596
5.98379190472 0.46561
6.48244304458 0.527312
6.98109446375 0.560427
7.47974616225 0.571152
7.97839814013 0.591072
8.4770503974 0.617449
8.97570293412 0.643422
9.47435575031 0.680125
9.973008846 0.720415
10.4716622212 0.756447
10.970315876 0.82102
11.4689698104 0.937686
11.9676240245 1.02226
12.4662785182 1.08938
12.9649332916 1.12638
13.4635883448 1.10735
13.9622436777 1.06448
14.4608992904 1.01621
14.959555183 0.972661
15.4582113554 0.940116
15.9568678077 0.932264
16.45552454 1.00584
16.9541815523 1.1002
17.4528388445 1.16962
17.9514964168 1.18768
18.4501542691 1.10818
18.9488124016 0.977033
19.4474708142 0.827358
19.9461295069 0.639356
20.4447884799 0.436818
20.9434477331 0.293492
21.4421072665 0.207458
21.9407670803 0.161578
22.4394271744 0.124855
22.9380875488 0.0961837
23.4367482037 0.0837442
23.935409139 0.0671581
24.4340703547 0.0310376
24.932731851 0
