-24.9327193334 1.09081
-24.4340716506 1.11996
-23.9354236947 1.14127
-23.4367754656 1.15525
-22.9381269634 1.16179
-22.439478188 1.19353
-21.9408291394 1.28966
-21.4421798175 1.35626
-20.9435302223 1.34898
-20.4448803538 1.32603
-19.9462302119 1.30124
-19.4475797967 1.29297
-18.948929108 1.28354
-18.4502781458 1.28049
-17.9516269102 1.27082
-17.452975401 1.24336
-16.9543236183 1.1971
-16.455671562 1.14469
-15.957019232 1.09727
-15.4583666284 1.04695
-14.9597137511 1.00354
-14.4610606001 0.966661
-13.9624071753 0.923717
-13.4637534767 0.869198
-12.9650995043 0.834286
-12.4664452581 0.817745
-11.9677907379 0.788907
-11.4691359438 0.741088
-10.9704808758 0.697723
-10.4718255337 0.678836
-9.97316991767 0.681032
-9.47451402755 0.716151
-8.97585786334 0.705783
-8.477201425 0.700621
-7.9785447125 0.708592
-7.47988772582 0.687658
-6.9812304649 0.633943
-6.48257292973 0.573714
-5.98391512027 0.507762
-5.48525703649 0.445106
-4.98659867835 0.41641
-4.48794004582 0.426342
-3.98928113886 0.448646
-3.49062195745 0.46273
-2.99196250155 0.466484
-2.49330277112 0.44525
-1.99464276614 0.414428
-1.49598248657 0.481967
-0.997321932381 0.44343
-0.498661103535 0.381956
0 0.299499
0.498661378256 0.22975
0.997323031267 0.14953
1.49598495906 0.0788939
1.99464716168 0.0388442
2.49330963915 0.0234344
2.99197239151 0.010369
3.49063541879 0
3.98929872102 0.00155078
4.48796229824 0.00720021
4.98662615047 0.0113548
5.48529027776 0.0173571
5.98395468013 0.0240778
6.48261935762 0.0274431
6.98128431026 0.018081
7.47994953808 0.0150541
7.97861504112 0.0194985
8.47728081941 0.0258226
8.97594687298 0.0283212
9.47461320187 0.0226836
9.9732798061 0.0125604
10.4719466857 0.0213534
10.9706138407 0.0317811
11.4692812712 0.028521
11.9679489772 0.0291656
12.4666169586 0.0424372
12.9652852157 0.0713997
13.4639537483 0.1073
13.9626225565 0.151742
14.4612916403 0.200656
14.9599609998 0.260125
15.4586306351 0.318766
15.9573005461 0.366499
16.4559707328 0.395607
16.9546411954 0.410251
17.4533119338 0.422931
17.9519829481 0.447967
18.4506542383 0.482394
18.9493258044 0.481063
19.4479976465 0.491438
19.9466697646 0.543869
20.4453421587 0.63187
20.944014829 0.783523
21.4426877753 0.923374
21.9413609977 1.00667
22.4400344964 1.08105
22.9387082712 1.14142
23.4373823223 1.12359
23.9360566496 1.09479
24.4347312532 1.05925
24.9334061332 1.01894
