-24.9411499289 1.19478
-24.4423332479 1.24039
-23.9435163096 1.29821
-23.4446991138 1.38405
-22.9458816606 1.36781
-22.4470639499 1.25619
-21.9482459817 1.20105
-21.4494277559 1.26978
-20.9506092726 1.2871
-20.4517905317 1.27522
-19.9529715331 1.23918
-19.4541522769 1.24588
-18.955332763 1.23257
-18.4565129914 1.19227
-17.957692962 1.11487
-17.4588726748 1.00678
-16.9600521299 0.986166
-16.4612313271 0.989245
-15.9624102665 0.992477
-15.4635889479 1.05556
-14.9647673714 1.15131
-14.465945537 1.19606
-13.9671234446 1.22573
-13.4683010942 1.21895
-12.9694784858 1.17751
-12.4706556193 1.12603
-11.9718324947 1.05033
-11.473009112 0.970944
-10.9741854711 0.905861
-10.475361572 0.852351
-9.97653741475 0.800584
-9.47771299924 0.742239
-8.97888832545 0.697223
-8.48006339336 0.705726
-7.98123820295 0.719656
-7.48241275417 0.722819
-6.98358704702 0.710147
-6.48476108144 0.663352
-5.98593485743 0.639252
-5.48710837493 0.649671
-4.98828163394 0.659706
-4.48945463442 0.611478
-3.99062737633 0.547685
-3.49179985966 0.487149
-2.99297208436 0.463125
-2.49414405042 0.444561
-1.99531575781 0.393543
-1.49648720648 0.348103
-0.997658396429 0.316321
-0.498829327611 0.279526
0 0.255001
0.498829586432 0.240637
0.997659431714 0.262174
1.49648953587 0.276418
1.99531989894 0.247341
2.49415052095 0.186279
2.99298140192 0.123346
3.49181254188 0.0690661
3.99064394087 0.0277282
4.48947559891 0.00749127
4.98830751603 0.00453303
5.48713969226 0
5.98597212763 0.0107704
6.48480482216 0.104548
6.9836377759 0.240589
7.48247098886 0.304657
7.98130446107 0.3822
8.48013819256 0.478409
8.97897218337 0.57057
9.47780643352 0.638456
9.97664094303 0.640071
10.4754757119 0.623938
10.9743107403 0.614414
11.4731460281 0.636548
11.9719815754 0.678605
12.4708173822 0.76152
12.9696534485 0.879244
13.4684897744 1.06389
13.9673263599 0.971874
14.4661632051 0.836488
14.9650003098 0.784813
15.4638376743 0.768162
15.9626752985 0.803452
16.4615131825 0.842259
16.9603513262 0.860758
17.4591897297 0.892823
17.958028393 0.982356
18.4568673162 1.02594
18.9557064993 1.02175
19.4545459423 1.01379
19.9533856452 0.995097
20.4522256082 0.989238
20.9510658311 1.01269
21.449906314 1.15431
21.948747057 1.30537
22.4475880601 1.34889
22.9464293233 1.37427
23.4452708467 1.38729
23.9441126302 1.35737
24.4429546739 1.30983
24.9417969779 1.24081
