-24.9327336135 1.04401
-24.4340856474 0.993248
-23.935437408 0.998336
-23.4367888954 1.02262
-22.9381401096 1.06116
-22.4394910505 1.05836
-21.9408417181 0.997964
-21.4421921123 0.953075
-20.9435422331 0.914419
-20.4448920805 0.87377
-19.9462416545 0.819841
-19.447590955 0.757879
-18.9489399819 0.71697
-18.4502887353 0.68731
-17.9516372151 0.653252
-17.4529854213 0.624146
-16.9543333539 0.609562
-16.4556810128 0.609608
-15.9570283979 0.623459
-15.4583755093 0.626608
-14.9597223469 0.622533
-14.4610689107 0.607377
-13.9624152006 0.57542
-13.4637612166 0.53382
-12.9651069588 0.502909
-12.466452427 0.47273
-11.9677976211 0.423781
-11.4691425413 0.369449
-10.9704871874 0.310941
-10.4718315595 0.236514
-9.9731756574 0.199522
-9.47451948117 0.167048
-8.97586303076 0.162534
-8.47720630612 0.156366
-7.97854930724 0.133489
-7.47989203407 0.117672
-6.98123448659 0.109431
-6.48257666476 0.0977108
-5.98391856854 0.0945637
-5.48526019791 0.099927
-4.98660155283 0.103861
-4.48794263326 0.101533
-3.98928343918 0.106178
-3.49062397055 0.102456
-2.99196422734 0.0792317
-2.49330420951 0.0423561
-1.99464391704 0.0332301
-1.49598334988 0.0253474
-0.997322508013 0.025128
-0.498661391397 0.0322545
0 0.0226308
0.498661666211 0.00381125
0.997323607268 0
1.49598582321 0.00432509
1.99464831405 0.0093373
2.49331107985 0.0154904
2.99197412062 0.0225579
3.49063743641 0.028667
3.98930102724 0.0290025
4.48796489315 0.0355714
4.98662903416 0.0542164
5.48529345033 0.0801266
5.98395814167 0.113217
6.48262310821 0.129935
6.98128835 0.134898
7.47995386707 0.125069
7.97861965945 0.150507
8.47728572716 0.233564
8.97595207025 0.384263
9.47461868875 0.631582
9.97328558269 0.850655
10.4719527521 1.05303
10.970620197 1.24804
11.4692879175 1.37817
11.9679559135 1.38322
12.4666241851 1.35816
12.9652927324 1.28344
13.4639615554 1.16954
13.962630654 1.02939
14.4613000284 0.84552
14.9599696785 0.690033
15.4586396045 0.567928
15.9573098063 0.49429
16.4559802839 0.457201
16.9546510375 0.455399
17.453322067 0.473076
17.9519933724 0.532868
18.4506649539 0.597357
18.9493368114 0.652688
19.4480089449 0.659639
19.9466813546 0.588968
20.4453540404 0.519483
20.9440270023 0.498195
21.4427002404 0.458522
21.9413737548 0.45478
22.4400475454 0.497086
22.9387216124 0.578562
23.4373959556 0.67091
23.9360705752 0.670518
24.4347454712 0.666599
24.9334206437 0.722986
