-24.9320361624 0.598723
-24.4334022447 0.567657
-23.9347680496 0.538162
-23.4361335773 0.53329
-22.9374988278 0.533232
-22.4388638008 0.520952
-21.9402284965 0.510453
-21.4415929148 0.507305
-20.9429570557 0.498088
-20.4443209191 0.476665
-19.9456845049 0.465271
-19.4470478133 0.460674
-18.9484108441 0.457119
-18.4497735972 0.461966
-17.9511360727 0.471423
-17.4524982706 0.467747
-16.9538601907 0.458812
-16.4552218331 0.449319
-15.9565831978 0.447479
-15.4579442846 0.443638
-14.9593050935 0.43535
-14.4606656247 0.422849
-13.9620258778 0.426284
-13.4633858531 0.426697
-12.9647455504 0.432291
-12.4661049696 0.438738
-11.9674641109 0.43805
-11.468822974 0.433025
-10.970181559 0.432243
-10.4715398659 0.431775
-9.97289789463 0.442579
-9.47425564513 0.374461
-8.97561311739 0.32875
-8.47697031137 0.295474
-7.97832722703 0.273873
-7.47968386436 0.26028
-6.9810402233 0.241543
-6.48239630383 0.231006
-5.98375210591 0.244636
-5.48510762952 0.327931
-4.98646287462 0.40011
-4.48781784116 0.370966
-3.98917252913 0.301842
-3.49052693849 0.302088
-2.99188106919 0.293778
-2.49323492122 0.245716
-1.99458849454 0.219943
-1.49594178911 0.217043
-0.997294804898 0.24985
-0.498647541872 0.254642
0 0.218351
0.498647820752 0.190745
0.997295920418 0.174395
1.49594429903 0.172637
1.99459295663 0.167955
2.49324189323 0.149294
2.99189110889 0.132888
3.49054060362 0.132369
3.98919037747 0.158074
4.48784043047 0.189758
4.98649076265 0.226505
5.48514137404 0.265851
5.98379226468 0.311329
6.4824434346 0.356545
6.98109488383 0.369612
7.47974661242 0.370121
7.97839862038 0.376271
8.47705090775 0.40962
8.97570347458 0.434555
9.47435632088 0.422854
9.9730094467 0.430812
10.4716628521 0.484435
10.970316537 0.586004
11.4689705016 0.734681
11.9676247458 0.830956
12.4662792697 0.876564
12.9649340733 0.85014
13.4635891566 0.82554
13.9622445197 0.84531
14.4609001627 0.920885
14.9595560854 0.9983
15.4582122881 1.0201
15.9568687707 1.02483
16.4555255332 1.01793
16.9541825757 0.964813
17.4528398982 0.8803
17.9514975008 0.797581
18.4501553834 0.734718
18.9488135462 0.683478
19.4474719891 0.638236
19.9461307121 0.626115
20.4447897154 0.584775
20.9434489989 0.470312
21.4421085627 0.354651
21.9407684069 0.340527
22.4394285313 0.368694
22.9380889361 0.360628
23.4367496214 0.271803
23.9354105871 0.172438
24.4340718332 0.07711
24.9327333599 0
