-24.9405334864 0.482101
-24.4417292347 0.431835
-23.9429247215 0.385691
-23.4441199468 0.360864
-22.9453149105 0.358306
-22.4465096127 0.37243
-21.9477040532 0.383661
-21.4488982321 0.346389
-20.9500921494 0.327493
-20.4512858049 0.327396
-19.9524791987 0.30447
-19.4536723308 0.275816
-18.9548652011 0.23991
-18.4560578096 0.192417
-17.9572501562 0.181979
-17.458442241 0.188453
-16.9596340638 0.201654
-16.4608256248 0.209845
-15.9620169237 0.216026
-15.4632079607 0.232793
-14.9643987357 0.256752
-14.4655892486 0.263225
-13.9667794994 0.255607
-13.4679694881 0.262057
-12.9691592147 0.278215
-12.4703486792 0.276547
-11.9715378814 0.244552
-11.4727268214 0.221978
-10.9739154992 0.219326
-10.4751039146 0.228398
-9.97629206778 0.235513
-9.47747995859 0.239399
-8.97866758703 0.239761
-8.47985495307 0.234417
-7.98104205668 0.232602
-7.48222889783 0.230713
-6.98341547649 0.237848
-6.48460179264 0.23045
-5.98578784623 0.207385
-5.48697363725 0.182813
-4.98815916566 0.155947
-4.48934443144 0.131058
-3.99052943455 0.106069
-3.49171417497 0.0649417
-2.99289865266 0.0143818
-2.4940828676 0.0349136
-1.99526681976 0.0793667
-1.49645050911 0.0632713
-0.997633935622 0.0490561
-0.498817099261 0.0487005
0 0.0511124
0.498817362187 0.0465293
0.997634987333 0.0440086
1.49645287547 0.0459519
1.99527102661 0.0408166
2.49408944081 0.030418
2.99290811807 0.0270083
3.49172705844 0.0322325
3.99054626195 0.0436242
4.48936572861 0.0532023
4.98818545847 0.0510485
5.48700545154 0.0518079
5.98582570787 0.0533065
6.48464622747 0.0547359
6.98346701038 0.0574269
7.48228805663 0.0647622
7.98110936624 0.067124
8.47993093925 0.0655031
8.97875277568 0.0647318
9.47757487557 0.0673788
9.97639723893 0.0698415
10.4752198658 0.0704744
10.9740427562 0.0661294
11.4728659102 0.0692013
11.9716893278 0.0686957
12.470513009 0.0630893
12.9693369539 0.0603765
13.4681611625 0.0602322
13.9669856347 0.0608025
14.4658103707 0.0639998
14.9646353705 0.0593241
15.4634606341 0.0535248
15.9622861616 0.0405406
16.4611119528 0.0272054
16.959938008 0.0111549
17.4587643271 0
17.9575909101 0.0903149
18.4564177572 0.182753
18.9552448682 0.297622
19.4540722432 0.456093
19.9528998823 0.622339
20.4517277856 0.718946
20.9505559529 0.77848
21.4493843844 0.795231
21.94821308 0.822294
22.4470420399 0.864358
22.945871264 0.888274
23.4447007524 0.911079
23.943530505 0.932719
24.442360522 0.957453
24.9411908034 0.983235
