-24.9412071413 0.371194
-24.4423893247 0.479784
-23.9435712505 0.70037
-23.4447529184 0.760464
-22.9459343285 0.723574
-22.4471154808 0.689283
-21.9482963753 0.639838
-21.4494770118 0.580483
-20.9506573904 0.549419
-20.4518375111 0.521946
-19.9530173737 0.549729
-19.4541969784 0.57498
-18.955376325 0.572523
-18.4565554135 0.563507
-17.957734244 0.557244
-17.4589128163 0.574219
-16.9600911305 0.632331
-16.4612691864 0.658071
-15.9624469842 0.599605
-15.4636245237 0.557455
-14.9648018049 0.573019
-14.4659788278 0.634723
-13.9671555924 0.689984
-13.4683320987 0.706591
-12.9695083465 0.684571
-12.4706843359 0.682467
-11.9718600669 0.652321
-11.4730355394 0.595698
-10.9742107534 0.605963
-10.4753857088 0.648291
-9.97656040572 0.693583
-9.47773484401 0.655143
-8.97890902368 0.544944
-8.48008294469 0.427296
-7.98125660702 0.362594
-7.48243001064 0.361451
-6.98360315552 0.379384
-6.48477604164 0.403304
-5.98594866895 0.430787
-5.48712103744 0.42083
-4.98829314708 0.379086
-4.48946499783 0.364511
-3.99063658966 0.3745
-3.49180792256 0.377806
-2.99297899648 0.367697
-2.4941498114 0.404041
-1.9953203673 0.441652
-1.49649066413 0.432328
-0.997660701879 0.405638
-0.498830480512 0.39177
0 0.401837
0.498830739686 0.423767
0.997661738574 0.429518
1.49649299669 0.386613
1.99532451407 0.329716
2.49415629074 0.280779
2.99298832673 0.215109
3.49182062207 0.156624
3.99065317678 0.107418
4.48948599089 0.0737385
4.98831906444 0.0648851
5.48715239745 0.0509595
5.98598598995 0.00284048
6.48481984197 0
6.98365395354 0.0562102
7.48248832469 0.188435
7.98132295544 0.328784
8.48015784583 0.433943
8.97899299589 0.539362
9.47782840563 0.692276
9.9766640751 0.846524
10.4755000043 1.01649
10.9743361933 1.15782
11.4731726421 1.25008
11.9720093508 1.3006
12.4708463193 1.34349
12.9696835477 1.34781
13.468521036 1.3292
13.9673587843 1.29196
14.4661967925 1.23196
14.9650350608 1.1936
15.4638735891 1.18851
15.9627123775 1.17952
16.4615514259 1.20307
16.9603907345 1.1924
17.4592303033 1.18723
17.9580701322 1.20927
18.4569102213 1.24749
18.9557505707 1.29102
19.4545911803 1.26843
19.9534320502 1.14269
20.4522731805 1.03649
20.9511145711 0.976239
21.4499562221 0.942787
21.9487981335 0.942015
22.4476403053 0.965285
22.9464827377 0.997276
23.4453254305 1.04603
23.9441683838 1.09839
24.4430115977 1.16605
24.9418550721 1.26097
