-24.9320341733 0.978671
-24.433400295 0.973743
-23.9347661394 0.972748
-23.4361317067 0.959669
-22.9374969966 0.940256
-22.4388620092 0.894853
-21.9402267444 0.843607
-21.4415912022 0.830578
-20.9429553826 0.83762
-20.4443192856 0.843806
-19.9456829111 0.84744
-19.447046259 0.828303
-18.9484093294 0.8024
-18.4497721222 0.785957
-17.9511346373 0.785879
-17.4524968748 0.803396
-16.9538588346 0.825768
-16.4552205167 0.845191
-15.956581921 0.840131
-15.4579430475 0.846698
-14.9593038962 0.84982
-14.460664467 0.844614
-13.96202476 0.851135
-13.463384775 0.857734
-12.964744512 0.860335
-12.4661039711 0.869938
-11.9674631521 0.892672
-11.468822055 0.899026
-10.9701806799 0.889696
-10.4715390266 0.89526
-9.97289709513 0.910595
-9.47425488548 0.896455
-8.97561239761 0.86915
-8.47696963146 0.834393
-7.97832658702 0.79765
-7.47968326425 0.765393
-6.98103966311 0.720102
-6.48239578357 0.656467
-5.9837516256 0.584349
-5.48510718916 0.536275
-4.98646247422 0.510577
-4.48781748075 0.476102
-3.98917220872 0.432455
-3.49052665808 0.377252
-2.99188082881 0.319249
-2.49323472087 0.292556
-1.99458833423 0.281074
-1.49594166886 0.282359
-0.997294724716 0.295849
-0.498647501775 0.295516
0 0.306485
0.498647780643 0.310091
0.997295840186 0.299403
1.49594417866 0.288102
1.99459279611 0.282435
2.49324169256 0.282173
2.99189086804 0.28558
3.49054032259 0.290363
3.98919005624 0.292171
4.48784006902 0.280381
4.98649036098 0.298544
5.48514093213 0.398069
5.98379178252 0.493342
6.48244291218 0.53708
6.98109432114 0.579031
7.47974600943 0.624018
7.97839797709 0.622201
8.47705022415 0.645329
8.97570275065 0.69531
9.47435555661 0.750527
9.97300864208 0.804569
10.4716620071 0.879173
10.9703156516 0.969615
11.4689695758 1.07041
11.9676237796 1.11663
12.4662782631 1.16057
12.9649330263 1.21427
13.4635880692 1.21282
13.9622433918 1.15748
14.4608989943 1.13509
14.9595548766 1.13285
15.4582110388 1.12672
15.9568674808 1.11692
16.4555242028 1.0931
16.9541812048 1.08878
17.4528384868 1.09765
17.9514960488 1.11041
18.4501538908 1.10997
18.948812013 1.09029
19.4474704153 1.05785
19.9461290978 0.919229
20.4447880604 0.660698
20.9434473033 0.466519
21.4421068265 0.339579
21.9407666299 0.292072
22.4394267137 0.257872
22.9380870779 0.218399
23.4367477224 0.181511
23.9354086474 0.13375
24.4340698528 0.0588988
24.9327313388 0
