-24.975050357 0.340782
-24.4755542314 0.377669
-23.9760579068 0.416106
-23.4765613831 0.463656
-22.9770646604 0.520888
-22.4775677385 0.573631
-21.9780706176 0.604793
-21.4785732975 0.651692
-20.9790757784 0.692457
-20.4795780601 0.749507
-19.9800801426 0.760992
-19.480582026 0.734514
-18.9810837102 0.718769
-18.4815851952 0.705821
-17.982086481 0.644468
-17.4825875677 0.535576
-16.983088455 0.426158
-16.4835891432 0.370642
-15.9840896321 0.314682
-15.4845899217 0.205085
-14.9850900121 0.0885884
-14.4855899032 0.0413255
-13.986089595 0.113378
-13.4865890875 0.120882
-12.9870883806 0.101967
-12.4875874745 0.132066
-11.9880863689 0.145809
-11.488585064 0.13162
-10.9890835598 0.177241
-10.4895818561 0.18911
-9.9900799531 0.252452
-9.49057785065 0.308501
-8.99107554878 0.308065
-8.49157304748 0.282579
-7.99207034673 0.257912
-7.49256744652 0.236594
-6.99306434684 0.208082
-6.49356104768 0.183024
-5.99405754902 0.171652
-5.49455385086 0.16869
-4.99504995317 0.170182
-4.49554585595 0.173929
-3.99604155919 0.189559
-3.49653706287 0.185052
-2.99703236698 0.142272
-2.49752747151 0.131685
-1.99802237644 0.128493
-1.49851708177 0.112094
-0.999011587484 0.0797968
-0.499505893563 0.0501277
0 0.0432715
0.499506093218 0.0332996
0.999012386104 0.0195085
1.49851887867 0.0171185
1.99802557093 0.0307426
2.49753246289 0.0469076
2.99703955457 0.0422234
3.49654684598 0.0324627
3.99605433712 0.0204667
4.49556202802 0.0140796
4.99506991869 0.0210308
5.49457800914 0.0295907
5.99408629937 0.034435
6.49359478941 0.0403612
6.99310347926 0.0358274
7.49261236893 0.0298493
7.99212145845 0.0301808
8.49163074781 0.0186217
8.99114023704 0.00335689
9.49064992615 0
9.99015981514 0.00191399
10.489669904 0.00676529
10.9891801928 0.0191158
11.4886906816 0.0331586
11.9882013702 0.0364955
12.4877122588 0.0440433
12.9872233474 0.0601043
13.4867346359 0.0901007
13.9862461245 0.128092
14.485757813 0.174834
14.9852697015 0.216299
15.4847817901 0.274121
15.9842940787 0.305267
16.4838065673 0.339942
16.983319256 0.392661
17.4828321447 0.43301
17.9823452336 0.459662
18.4818585225 0.484309
18.9813720115 0.508011
19.4808857007 0.533957
19.98039959 0.569412
20.4799136794 0.602312
20.979427969 0.624793
21.4789424587 0.618547
21.9784571487 0.591745
22.4779720388 0.574571
22.9774871291 0.566318
23.4770024196 0.561882
23.9765179104 0.558442
24.4760336014 0.567557
24.9755494926 0.586328
