-24.9306201015 1.50267
-24.432014422 1.45929
-23.9334084687 1.43803
-23.4348022414 1.41893
-22.9361957403 1.41472
-22.4375889652 1.4082
-21.9389819162 1.37459
-21.4403745931 1.32163
-20.941766996 1.27428
-20.4431591248 1.20381
-19.9445509795 1.14811
-19.4459425601 1.1018
-18.9473338664 1.04618
-18.4487248986 1.03031
-17.9501156565 1.01551
-17.4515061401 0.989498
-16.9528963494 0.961145
-16.4542862843 0.940359
-15.9556759449 0.915717
-15.457065331 0.890305
-14.9584544426 0.884346
-14.4598432798 0.885445
-13.9612318425 0.880577
-13.4626201306 0.856827
-12.964008144 0.834522
-12.4653958829 0.803045
-11.9667833471 0.78502
-11.4681705366 0.755697
-10.9695574514 0.702992
-10.4709440914 0.64553
-9.97233045659 0.593913
-9.47371654697 0.5569
-8.97510236247 0.518919
-8.47648790307 0.479208
-7.97787316873 0.407131
-7.47925815942 0.379782
-6.98064287511 0.379163
-6.48202731575 0.376604
-5.98341148132 0.301481
-5.48479537179 0.258264
-4.98617898711 0.241403
-4.48756232726 0.238449
-3.98894539219 0.244393
-3.49032818188 0.24709
-2.99171069629 0.228344
-2.49309293539 0.185757
-1.99447489915 0.158772
-1.49585658752 0.139623
-0.997238000472 0.142383
-0.498619137978 0.14966
0 0.15289
0.498619413495 0.153209
0.997239102541 0.145919
1.49585906717 0.138248
1.99447930743 0.142937
2.49309982333 0.142109
2.99172061493 0.122179
3.49034168224 0.0802821
3.98896302531 0.0373351
4.48758464418 0
4.98620653886 0.0141424
5.48482870941 0.0777815
5.98345115584 0.272243
6.48207387821 0.487602
6.98069687653 0.336526
7.47932015085 0.197974
7.97794370119 0.2422
8.4765675276 0.301252
8.9751916301 0.438718
9.47381600874 0.577474
9.97244066353 0.686609
10.4710655945 0.754469
10.9696908018 0.762959
11.4683162853 0.73484
11.966942045 0.747717
12.4655680812 0.755396
12.9641943937 0.766544
13.4628209826 0.803192
13.9614478479 0.731031
14.4600749897 0.675163
14.958702408 0.597869
15.4573301028 0.581756
15.9559580743 0.603532
16.4545863223 0.607093
16.9532148469 0.603085
17.4518436483 0.618388
17.9504727263 0.646117
18.4491020811 0.66573
18.9477317126 0.63902
19.446361621 0.626024
19.9449918062 0.711182
20.4436222683 0.801396
20.9422530073 0.841654
21.4408840232 0.867371
21.9395153161 0.882164
22.438146886 0.903475
22.936778733 0.930353
23.435410857 0.962669
23.9340432582 1.03435
24.4326759365 1.11239
24.931308892 1.1549
