-24.9320385462 0.452289
-24.4334045811 0.446029
-23.9347703388 0.457381
-23.4361358192 0.488701
-22.9375010222 0.528807
-22.4388659479 0.564318
-21.9402305963 0.573084
-21.4415949672 0.555565
-20.9429590606 0.533671
-20.4443228766 0.515102
-19.945686415 0.451413
-19.4470496759 0.451855
-18.9484126592 0.456097
-18.4497753649 0.38337
-17.9511377929 0.321156
-17.4524999433 0.331798
-16.9538618159 0.347891
-16.4552234107 0.380651
-15.9565847278 0.4059
-15.457945767 0.406458
-14.9593065284 0.397336
-14.4606670119 0.38878
-13.9620272175 0.384866
-13.4633871451 0.397105
-12.9647467947 0.416209
-12.4661061663 0.401447
-11.9674652598 0.381629
-11.4688240753 0.366756
-10.9701826126 0.348286
-10.4715408718 0.334315
-9.97289885274 0.318091
-9.47425655548 0.30362
-8.97561397997 0.297912
-8.47697112615 0.294813
-7.97832799401 0.281436
-7.47968458351 0.257537
-6.98104089462 0.283354
-6.4823969273 0.298844
-5.98375268152 0.327095
-5.48510815724 0.346961
-4.98646335444 0.341408
-4.48781827307 0.356928
-3.98917291311 0.315804
-3.49052727452 0.211281
-2.99188135727 0.155139
-2.49323516133 0.164757
-1.99458868665 0.187193
-1.49594193322 0.213254
-0.997294900984 0.228629
-0.498647589923 0.181237
0 0.127186
0.498647868819 0.131874
0.997296016567 0.140061
1.49594444328 0.135903
1.99459314899 0.134359
2.49324213372 0.141987
2.99189139752 0.155434
3.49054094041 0.174281
3.98919076244 0.166414
4.48784086363 0.14704
4.98649124401 0.133775
5.48514190362 0.124606
5.98379284249 0.113753
6.48244406067 0.102681
6.98109555817 0.0916984
7.47974733503 0.0704713
7.97839939129 0.0464822
8.47705172697 0.0620412
8.97570434213 0.0619843
9.47435723677 0.0289386
9.97301041095 0.0129239
10.4716638647 0.0155177
10.970317598 0.00834945
11.468971611 0
11.9676259036 0.0150058
12.4662804759 0.0447606
12.964935328 0.0881338
13.4635904598 0.130204
13.9622458714 0.145903
14.4609015628 0.162804
14.9595575341 0.178195
15.4582137853 0.202002
15.9568703164 0.264884
16.4555271275 0.363707
16.9541842186 0.373174
17.4528415897 0.3247
17.9514992408 0.282701
18.4501571721 0.265877
18.9488153835 0.263266
19.447473875 0.259847
19.9461326468 0.246325
20.4447916987 0.254444
20.9434510309 0.286453
21.4421106434 0.314679
21.9407705363 0.35245
22.4394307095 0.407882
22.9380911631 0.478108
23.4367518971 0.529631
23.9354129116 0.52257
24.4340742065 0.489648
24.932735782 0.464722
