-24.9313781849 0.475636
-24.4327573864 0.466831
-23.9341363124 0.451597
-23.4355149628 0.449652
-22.9368933375 0.432253
-22.4382714365 0.418975
-21.9396492597 0.434061
-21.4410268073 0.456495
-20.942404079 0.466023
-20.4437810749 0.469299
-19.9451577949 0.461352
-19.446534239 0.435719
-18.9479104073 0.393515
-18.4492862995 0.338448
-17.9506619157 0.286453
-17.452037256 0.255797
-16.9534123201 0.232788
-16.4547871082 0.218731
-15.9561616201 0.211471
-15.4575358558 0.211574
-14.9589098154 0.236217
-14.4602834987 0.249561
-13.9616569057 0.241735
-13.4630300365 0.248198
-12.9644028909 0.265293
-12.4657754689 0.231747
-11.9671477705 0.17841
-11.4685197957 0.180586
-10.9698915444 0.187782
-10.4712630166 0.190283
-9.97263421228 0.184235
-9.47400513137 0.192537
-8.97537577386 0.204672
-8.4767461397 0.217309
-7.97811622886 0.235082
-7.47948604132 0.235528
-6.98085557703 0.220867
-6.48222483597 0.221363
-5.98359381809 0.251888
-5.48496252337 0.23336
-4.98633095177 0.183391
-4.48769910325 0.110354
-3.98906697779 0.111563
-3.49043457536 0.106559
-2.9918018959 0.10331
-2.4931689394 0.104595
-1.99453570582 0.102546
-1.49590219512 0.0982012
-0.997268407275 0.0860828
-0.498634342246 0.0751832
0 0.0639623
0.498634619496 0.0576491
0.997269516275 0.0520648
1.49590469037 0.0258124
1.99454014182 0
2.49317587065 0.00577338
2.99181187691 0.0113769
3.49044816061 0.0146366
3.9890847218 0.00777855
4.48772156051 0.00504725
4.98635867677 0.0283143
5.48499607062 0.0422308
5.9836337421 0.0509008
6.48227169122 0.0759654
6.98090991803 0.105869
7.47954842257 0.132555
7.97818720486 0.186707
8.47682626494 0.199496
8.97546560284 0.193959
9.4741052186 0.169687
9.97274511224 0.148361
10.4713852838 0.162011
10.9700257333 0.225586
11.4686664609 0.272794
11.9673074664 0.29405
12.46594875 0.316936
12.9645903117 0.347088
13.4632321515 0.386767
13.9618742695 0.420292
14.4605166656 0.421131
14.95915934 0.416918
15.4578022927 0.42954
15.9564455236 0.442964
16.4550890329 0.45411
16.9537328205 0.459197
17.4523768865 0.459378
17.951021231 0.472129
18.4496658539 0.486989
18.9483107553 0.491873
19.4469559352 0.498297
19.9456013937 0.501574
20.4442471308 0.498037
20.9428931465 0.485387
21.4415394408 0.465471
21.9401860139 0.463643
22.4388328657 0.466975
22.9374799962 0.460768
23.4361274056 0.443268
23.9347750937 0.417384
24.4334230608 0.384637
24.9320713067 0.342249
