-24.9327229096 0.713587
-24.4340751558 0.692468
-23.9354271289 0.697069
-23.4367788288 0.711216
-22.9381302556 0.735871
-22.4394814091 0.716947
-21.9408322894 0.6693
-21.4421828965 0.689482
-20.9435332302 0.720506
-20.4448832905 0.80841
-19.9462330775 0.908158
-19.447582591 0.942802
-18.9489318311 0.922484
-18.4502807977 0.896592
-17.9516294908 0.910465
-17.4529779104 0.904778
-16.9543260564 0.890655
-16.4556739287 0.863712
-15.9570215274 0.847385
-15.4583688524 0.856207
-14.9597159037 0.866025
-14.4610626813 0.900825
-13.9624091851 0.89993
-13.463755415 0.894879
-12.9651013711 0.878584
-12.4664470533 0.874425
-11.9677924617 0.824265
-11.469137596 0.77725
-10.9704824564 0.6983
-10.4718270427 0.613373
-9.97317135506 0.531758
-9.47451539329 0.487798
-8.9758591574 0.45104
-8.47720264737 0.41792
-7.97854586315 0.425115
-7.47988880472 0.441503
-6.98123147205 0.45133
-6.48257386509 0.434118
-5.98391598382 0.401915
-5.4852578282 0.402468
-4.9865993982 0.432035
-4.48794069378 0.459494
-3.98928171493 0.468467
-3.49062246159 0.448409
-2.99196293373 0.385587
-2.49330313134 0.336433
-1.99464305436 0.324556
-1.49598270277 0.309018
-0.997322076536 0.279374
-0.498661175624 0.243601
0 0.220744
0.498661450368 0.196714
0.997323175513 0.18828
1.49598517547 0.173143
1.99464745027 0.140961
2.49330999994 0.100224
2.99197282453 0.0383332
3.49063592406 0
3.98929929856 0.00172792
4.48796294808 0.0110681
4.98662687263 0.020137
5.48529107226 0.0193432
5.983955547 0.0150329
6.48262029687 0.0364803
6.98128532192 0.0760556
7.47995062218 0.0503553
7.97861619768 0.00953422
8.47728204845 0.0104612
8.97594817452 0.0144201
9.47461457594 0.0199229
9.97328125272 0.00987855
10.4719482049 0.0114518
10.9706154325 0.0211874
11.4692829356 0.0262986
11.9679507142 0.0268196
12.4666187684 0.028964
12.9652870981 0.0310913
13.4639557034 0.0305217
13.9626245843 0.0409089
14.4612937409 0.0712038
14.9599631732 0.169611
15.4586328813 0.316847
15.9573028651 0.410206
16.4559731247 0.48093
16.9546436601 0.489459
17.4533144714 0.440311
17.9519855586 0.438554
18.4506569218 0.451721
18.9493285609 0.473242
19.4480004759 0.491679
19.9466726671 0.50236
20.4453451342 0.385711
20.9440178775 0.222114
21.4426908969 0.432022
21.9413641925 0.739535
22.4400377642 1.0011
22.9387116122 0.989301
23.4373857364 0.9476
23.936060137 0.923751
24.4347348138 0.984521
24.933409767 1.13111
