-24.941121293 0.842961
-24.4423051804 0.976815
-23.9434888106 1.13874
-23.4446721836 1.30317
-22.9458552993 1.45882
-22.4470381577 1.54411
-21.9482207587 1.57678
-21.4494031024 1.72542
-20.9505851887 1.92212
-20.4517670176 2.05867
-19.952948589 2.05225
-19.4541299029 2.00483
-18.9553109593 1.99469
-18.4564917582 1.98497
-17.9576722995 1.95868
-17.4588525832 1.89892
-16.9600326093 1.82345
-16.4612123777 1.7794
-15.9623918885 1.7437
-15.4635711415 1.70177
-14.9647501368 1.64135
-14.4659288743 1.58774
-13.967107354 1.54455
-13.4682855759 1.552
-12.9694635399 1.5758
-12.470641246 1.533
-11.9718186942 1.47523
-11.4729958845 1.39523
-10.9741728168 1.29263
-10.475349491 1.21096
-9.97652590728 1.15297
-9.47770206546 1.11506
-8.97887796554 1.08568
-8.4800536075 1.06239
-7.98122899131 1.03007
-7.48240411694 1.04632
-6.98357898436 1.07465
-6.48475359354 1.05667
-5.98592794445 1.04607
-5.48710203707 1.02412
-4.98827587136 0.987153
-4.4894494473 0.947691
-3.99062276485 0.866724
-3.49179582399 0.766632
-2.99296862469 0.678828
-2.49414116692 0.237754
-1.99531345065 0.0873993
-1.49648547585 0
-0.997657242499 0.0724426
-0.498828750558 0.254334
0 0.38641
0.498829009201 0.446892
0.997658277076 0.415606
1.49648780365 0.415529
1.99531758896 0.433216
2.49414763303 0.463576
2.99297793588 0.464597
3.49180849756 0.435467
3.99063931808 0.390683
4.48947039747 0.33281
4.98830173577 0.287906
5.48713333301 0.266977
5.9859651892 0.262898
6.48479730439 0.248766
6.9836296786 0.270967
7.48246231185 0.345214
7.98129520418 0.451363
8.48012835562 0.544514
8.9789617662 0.611156
9.47779543594 0.719644
9.97662936487 0.84313
10.475463553 1.00521
10.9742980004 1.24279
11.4731327071 1.43716
11.9719676731 1.49156
12.4708028984 1.46271
12.9696383831 1.31223
13.4684741272 1.14692
13.9673101307 0.993229
14.4661463937 0.848707
14.9649829161 0.701341
15.4638196981 0.543193
15.9626567396 0.489611
16.4614940406 0.503308
16.9603316013 0.524217
17.4591694216 0.579416
17.9580075015 0.608355
18.4568458411 0.578909
18.9556844404 0.581239
19.4545232995 0.646658
19.9533624183 0.607331
20.4522017969 0.582013
20.9510414354 0.659522
21.4498813337 0.751985
21.9487214919 0.762698
22.44756191 0.703496
22.946402588 0.585419
23.445243526 0.461964
23.9440847241 0.418752
24.4429261821 0.411541
24.9417679002 0.410964
