-24.9411976114 0.672821
-24.442379984 0.695864
-23.943562099 0.680316
-23.4447439562 0.676882
-22.9459255557 0.687
-22.4471068973 0.683749
-21.9482879812 0.664857
-21.4494688073 0.665264
-20.9506493754 0.677828
-20.4518296857 0.699819
-19.9530097381 0.721833
-19.4541895325 0.743174
-18.9553690689 0.757176
-18.4565483473 0.74672
-17.9577273677 0.750654
-17.45890613 0.764325
-16.9600846342 0.79641
-16.4612628802 0.838792
-15.9624408681 0.883191
-15.4636185978 0.865915
-14.9647960694 0.812529
-14.4659732826 0.808343
-13.9671502376 0.811649
-13.4683269343 0.782287
-12.9695033726 0.738528
-12.4706795526 0.710544
-11.9718554742 0.713629
-11.4730311374 0.730662
-10.9742065421 0.689391
-10.4753816884 0.598949
-9.97655657613 0.556828
-9.47773120534 0.511938
-8.97890557599 0.510764
-8.48007968804 0.517382
-7.98125354147 0.529009
-7.48242713624 0.488776
-6.98360047234 0.484367
-6.48477354973 0.4709
-5.98594636838 0.430044
-5.48711892826 0.387957
-4.98829122934 0.353226
-4.4894632716 0.320017
-3.99063505501 0.288708
-3.49180657953 0.294996
-2.99297784513 0.334974
-2.4941488518 0.404501
-1.9953195995 0.478485
-1.49649008819 0.488305
-0.997660317863 0.478183
-0.498830288474 0.50252
0 0.513699
0.498830547589 0.493668
0.997661354322 0.45703
1.49649242023 0.416127
1.99532374534 0.314392
2.49415532967 0.189298
2.99298717327 0.127245
3.49181927616 0.0828334
3.99065163836 0.0405886
4.48948425991 0.0027571
4.98831714083 0.00734388
5.48715028116 0.0281199
5.98598368092 0.00630084
6.48481734014 0
6.98365125885 0.0624804
7.48248543708 0.150183
7.98131987486 0.252893
8.48015457221 0.47056
8.97898952917 0.685266
9.47782474576 0.879197
9.97666022202 1.08428
10.475495958 1.31071
10.9743319536 1.42794
11.4731682091 1.41567
11.9720047242 1.3981
12.4708414993 1.37856
12.9696785341 1.35093
13.4685158288 1.31288
13.9673533834 1.28022
14.4661911979 1.27333
14.9650292724 1.29824
15.4638676068 1.33164
15.9627062013 1.30406
16.4615450558 1.23432
16.9603841703 1.14928
17.459223545 1.15527
17.9580631797 1.17629
18.4569030747 1.12486
18.9557432298 1.04829
19.4545836451 1.03187
19.9534243206 1.06323
20.4522652564 1.10998
20.9511064526 1.16197
21.449947909 1.17911
21.9487896258 1.21518
22.4476316029 1.32058
22.9464738405 1.34775
23.4453163385 1.349
23.944159097 1.34471
24.443002116 1.35159
24.9418453955 1.35396
