-24.9326941866 0.442766
-24.4340470027 0.449945
-23.9353995459 0.459482
-23.4367518162 0.468413
-22.9381038134 0.479573
-22.4394555376 0.481395
-21.9408069887 0.471776
-21.4421581668 0.456545
-20.9435090717 0.442686
-20.4448597034 0.444102
-19.946210062 0.46674
-19.4475601473 0.491015
-18.9489099593 0.522234
-18.4502594981 0.545536
-17.9516087635 0.567268
-17.4529577556 0.54601
-16.9543064742 0.549438
-16.4556549195 0.548888
-15.9570030912 0.533416
-15.4583509895 0.505244
-14.9596986143 0.463593
-14.4610459654 0.433978
-13.962393043 0.432143
-13.463739847 0.44028
-12.9650863772 0.464767
-12.4664326338 0.504969
-11.9677786167 0.545281
-11.4691243258 0.582528
-10.9704697611 0.607495
-10.4718149226 0.633252
-9.97315981017 0.653327
-9.47450442388 0.693757
-8.97584876366 0.67455
-8.47719282948 0.661689
-7.9785366213 0.593444
-7.4798801391 0.49215
-6.98122338283 0.413166
-6.48256635247 0.373158
-5.98390904797 0.355285
-5.48525146932 0.317875
-4.98659361647 0.277272
-4.4879354894 0.247077
-3.98927708806 0.224221
-3.49061841243 0.216509
-2.99195946247 0.171613
-2.49330023816 0.117544
-1.99464073944 0.0840542
-1.49598096631 0.0627876
-0.997320918707 0.0526687
-0.498660596617 0.0560661
0 0.0556698
0.498660871176 0.0642691
0.997322016945 0.085372
1.49598343734 0.0923212
1.99464513239 0.0869139
2.49330710213 0.088417
2.9919693466 0.116352
3.49063186582 0.168668
3.98929465984 0.214593
4.48795772867 0.272817
4.98662107237 0.357126
5.48528469095 0.435259
5.98394858446 0.507395
6.48261275292 0.551342
6.98127719637 0.557433
7.47994191484 0.575511
7.97860690836 0.617696
8.47727217698 0.674829
8.97593772071 0.709539
9.47460353959 0.69614
9.97326963367 0.656687
10.471936003 0.604087
10.9706026475 0.564697
11.4692695673 0.53739
11.9679367625 0.53643
12.466604233 0.581924
12.9652719789 0.654832
13.4639400002 0.749061
13.9626082969 0.842467
14.4612768691 0.928662
14.9599457169 0.997841
15.4586148402 1.07588
15.957284239 1.13837
16.4559539135 1.16174
16.9546238637 1.16622
17.4532940895 1.13765
17.951964591 1.06328
18.4506353683 0.96509
18.9493064213 0.801486
19.4479777502 0.521253
19.9466493549 0.264282
20.4453212355 0.0639844
20.943993392 0
21.4426658244 0.00233743
21.9413385328 0.0649027
22.4400115172 0.0691977
22.9386847777 0.0212442
23.4373583142 0.0040636
23.9360321269 0.0345072
24.4347062156 0.128459
24.9333805806 0.344902
