-24.9751820792 0.274231
-24.4756833342 0.270286
-23.9761843896 0.274785
-23.4766852452 0.273838
-22.9771859012 0.278373
-22.4776863575 0.292491
-21.978186614 0.28527
-21.4786866709 0.288871
-20.979186528 0.294478
-20.4796861853 0.292815
-19.9801856429 0.296153
-19.4806849007 0.299989
-18.9811839587 0.298393
-18.481682817 0.296921
-17.9821814754 0.307458
-17.482679934 0.344671
-16.9831781927 0.379911
-16.4836762517 0.404705
-15.9841741107 0.408814
-15.4846717699 0.376451
-14.9851692292 0.304053
-14.4856664886 0.212879
-13.986163548 0.157011
-13.4866604076 0.11121
-12.9871570672 0.101082
-12.4876535269 0.140501
-11.9881497866 0.15245
-11.4886458464 0.099988
-10.9891417061 0.0595259
-10.4896373659 0.0540403
-9.99013282563 0.0337259
-9.49062808537 0.0441139
-8.99112314507 0.0877331
-8.49161800472 0.0469963
-7.99211266432 0.0118218
-7.49260712385 0
-6.99310138329 0.00451032
-6.49359544264 0.0108551
-5.99408930188 0.0126131
-5.49458296101 0.0153933
-4.99507642 0.0186923
-4.49556967885 0.0418154
-3.99606273754 0.0634553
-3.49655559607 0.0970121
-2.99704825441 0.125655
-2.49754071256 0.146744
-1.99803297051 0.134498
-1.49852502824 0.105887
-0.999016885737 0.0922344
-0.499508542996 0.0932704
0 0.108035
0.499508743261 0.138591
0.999017686801 0.144896
1.49852683063 0.13269
1.99803617476 0.131689
2.49754571921 0.135534
2.99705546398 0.179499
3.4965654091 0.266101
3.99607555456 0.317748
4.49558590038 0.358811
4.99509644659 0.442795
5.49460719318 0.540569
5.99411814017 0.639245
6.49362928757 0.70066
6.99314063539 0.733025
7.49265218366 0.733836
7.99216393237 0.728078
8.49167588154 0.737104
8.99118803118 0.772088
9.49070038131 0.781154
9.99021293193 0.765411
10.4897256831 0.812223
10.9892386347 0.859212
11.4887517869 0.883015
11.9882651396 0.894517
12.4877786929 0.927389
12.9872924468 0.970209
13.4868064012 0.999331
13.9863205563 1.01276
14.4858349119 0.98358
14.9853494681 0.965184
15.484864225 0.957465
15.9843791826 0.94692
16.4838943407 0.926566
16.9834096996 0.888851
17.4829252591 0.827631
17.9824410193 0.737772
18.4819569802 0.625469
18.9814731419 0.487318
19.4809895042 0.381593
19.9805060673 0.316931
20.4800228311 0.260791
20.9795397957 0.21037
21.4790569611 0.192934
21.9785743273 0.191171
22.4780918942 0.187548
22.977609662 0.197178
23.4771276306 0.187982
23.9766458 0.178827
24.4761641703 0.189947
24.9756827414 0.214735
