-24.9417992042 1.22132
-24.4429695109 1.13189
-23.9441395612 1.08924
-23.4453093552 1.06601
-22.9464788928 1.05809
-22.4476481741 1.04228
-21.9488171989 1.03478
-21.4499859673 1.01242
-20.9511544792 0.982607
-20.4523227346 0.951163
-19.9534907335 0.885898
-19.4546584758 0.838196
-18.9558259615 0.788241
-18.4569931906 0.758638
-17.958160163 0.742301
-17.4593268788 0.721075
-16.9604933379 0.698978
-16.4616595402 0.685864
-15.9628254857 0.660781
-15.4639911745 0.652361
-14.9651566065 0.642265
-14.4663217815 0.615117
-13.9674866998 0.602089
-13.4686513611 0.589332
-12.9698157654 0.57972
-12.4709799128 0.556785
-11.9721438033 0.591133
-11.4733074366 0.640188
-10.974470813 0.622366
-10.4756339322 0.621616
-9.97679679437 0.632777
-9.47795939937 0.621848
-8.97912174721 0.594299
-8.48028383785 0.600235
-7.98144567127 0.610775
-7.48260724743 0.586376
-6.98376856631 0.564685
-6.48492962788 0.545527
-5.98609043212 0.505229
-5.48725097898 0.441323
-4.98841126845 0.387122
-4.48957130049 0.362354
-3.99073107508 0.375297
-3.49189059218 0.37835
-2.99304985178 0.386431
-2.49420885383 0.386924
-1.99536759832 0.387402
-1.49652608521 0.372277
-0.997684314467 0.351696
-0.498842286075 0.320334
0 0.263577
0.498842543787 0.202119
0.997685345315 0.139954
1.49652840461 0.0979422
1.9953717217 0.108288
2.49421529662 0.109609
2.9930591294 0.0358889
3.49190322006 0.000756581
3.99074756863 0
4.48959217514 0.00334986
4.98843703962 0.0166635
5.48728216209 0.0420604
5.98612754259 0.0872256
6.48497318115 0.190948
6.98381907779 0.28698
7.48266523254 0.336382
7.98151164543 0.367182
8.48035831649 0.383389
8.97920524575 0.405702
9.47805243323 0.455307
9.97689987897 0.508912
10.475747583 0.539128
10.9745955453 0.551231
11.473443766 0.550615
11.972292245 0.543954
12.4711409825 0.550327
12.9699899783 0.548746
13.4688392326 0.554984
13.9676887454 0.565894
14.4665385167 0.608289
14.9653885466 0.681523
15.464238835 0.725875
15.963089382 0.729347
16.4619401876 0.747561
16.9607912519 0.76639
17.4596425749 0.746602
17.9584941565 0.701732
18.4573459969 0.653741
18.9561980961 0.623946
19.4550504541 0.629221
19.9539030709 0.645807
20.4527559465 0.664231
20.951609081 0.684326
21.4504624745 0.759598
21.9493161268 0.815436
22.4481700382 0.792422
22.9470242085 0.728552
23.4458786378 0.642329
23.9447333262 0.553701
24.4435882737 0.476179
24.9424434803 0.428477
