-24.9320390093 0.65183
-24.433405035 0.599227
-23.9347707835 0.553244
-23.4361362547 0.524674
-22.9375014485 0.503552
-22.438866365 0.488467
-21.9402310041 0.473771
-21.4415953658 0.483876
-20.9429594501 0.49768
-20.4443232568 0.504166
-19.9456867861 0.493859
-19.4470500377 0.507284
-18.9484130118 0.520249
-18.4497757083 0.538847
-17.9511381271 0.532392
-17.4525002682 0.534669
-16.9538621316 0.53342
-16.4552237172 0.510796
-15.956585025 0.46861
-15.457946055 0.420421
-14.9593068071 0.374208
-14.4606672814 0.370755
-13.9620274777 0.363564
-13.4633873961 0.351182
-12.9647470364 0.342441
-12.4661063988 0.314163
-11.967465483 0.284774
-11.4688242892 0.27504
-10.9701828173 0.266431
-10.4715410672 0.225089
-9.97289903886 0.206597
-9.47425673233 0.213486
-8.97561414753 0.222831
-8.47697128443 0.2378
-7.97832814301 0.21522
-7.47968472322 0.194446
-6.98104102503 0.154754
-6.48239704841 0.109376
-5.98375279333 0.0221459
-5.48510825976 0.0233596
-4.98646344765 0.0279592
-4.48781835697 0.0382262
-3.9891729877 0.0277554
-3.4905273398 0
-2.99188141323 0.00940292
-2.49323520797 0.0479234
-1.99458872397 0.103954
-1.49594196121 0.143007
-0.99729491965 0.197792
-0.498647599258 0.186157
0 0.172634
0.498647878157 0.176893
0.997296035245 0.171167
1.4959444713 0.145791
1.99459318635 0.1701
2.49324218044 0.247389
2.99189145359 0.289341
3.49054100584 0.270845
3.98919083722 0.250788
4.48784094777 0.23728
4.98649133751 0.203167
5.48514200649 0.165943
5.98379295474 0.134609
6.48244418228 0.107056
6.98109568916 0.0807224
7.4797474754 0.0599301
7.97839954104 0.059895
8.47705188611 0.0858278
8.97570451065 0.102334
9.47435741469 0.103061
9.97301059826 0.131653
10.4716640614 0.177209
10.9703178041 0.21834
11.4689718265 0.239497
11.9676261285 0.283294
12.4662807103 0.333507
12.9649355717 0.370901
13.4635907129 0.402731
13.962246134 0.448503
14.4609018348 0.505504
14.9595578155 0.525471
15.4582140761 0.504757
15.9568706167 0.499304
16.4555274372 0.53894
16.9541845377 0.620331
17.4528419183 0.694092
17.9514995789 0.684071
18.4501575196 0.640283
18.9488157404 0.617328
19.4474742414 0.596131
19.9461330226 0.567364
20.444792084 0.535707
20.9434514257 0.505429
21.4421110476 0.489977
21.9407709499 0.493325
22.4394311326 0.503136
22.9380915957 0.499014
23.4367523392 0.483295
23.9354133631 0.480944
24.4340746675 0.479307
24.9327362525 0.4876
