-24.9320376064 0.321734
-24.43340366 0.314794
-23.9347694363 0.312599
-23.4361349353 0.301208
-22.937500157 0.293515
-22.4388651014 0.282249
-21.9402297684 0.278769
-21.441594158 0.29158
-20.9429582702 0.34818
-20.4443221048 0.437562
-19.945685662 0.537137
-19.4470489416 0.56477
-18.9484119436 0.581876
-18.449774668 0.635874
-17.9511371147 0.682904
-17.4524992838 0.70488
-16.9538611751 0.735269
-16.4552227887 0.786466
-15.9565841246 0.809325
-15.4579451826 0.81574
-14.9593059627 0.829664
-14.460666465 0.822608
-13.9620266893 0.794243
-13.4633866357 0.789437
-12.9647463041 0.775276
-12.4661056945 0.746336
-11.9674648069 0.707972
-11.4688236411 0.703314
-10.9701821972 0.680481
-10.4715404752 0.628304
-9.972898475 0.572945
-9.47425619657 0.526381
-8.97561363989 0.468631
-8.47697080492 0.390662
-7.97832769163 0.36028
-7.47968429998 0.350497
-6.98104062995 0.302771
-6.48239668149 0.248714
-5.98375245458 0.199058
-5.48510794919 0.238529
-4.98646316527 0.249942
-4.48781810279 0.145789
-3.98917276173 0.0585194
-3.49052714204 0.0523125
-2.9918812437 0.0582717
-2.49323506667 0.0788185
-1.99458861091 0.0929777
-1.4959418764 0.0765479
-0.997294863101 0.0804633
-0.498647570979 0.0837191
0 0.0866075
0.498647849868 0.0951556
0.99729597866 0.103873
1.49594438641 0.108529
1.99459307315 0.110124
2.49324203891 0.112227
2.99189128372 0.112807
3.49054080763 0.1097
3.98919061066 0.105208
4.48784069285 0.10449
4.98649105423 0.114422
5.48514169483 0.145216
5.98379261469 0.260774
6.48244381383 0.386172
6.98109529231 0.389477
7.47974705013 0.37832
7.97839908735 0.402502
8.47705140399 0.378622
8.97570400009 0.300719
9.47435687568 0.217473
9.97301003079 0.155275
10.4716634655 0.113324
10.9703171797 0.056437
11.4689711736 0.00148682
11.9676254471 0
12.4662800003 0.0229113
12.9649348333 0.0378356
13.463589946 0.0382891
13.9622453385 0.0369032
14.4609010108 0.0320214
14.959556963 0.0318925
15.458213195 0.0322211
15.956869707 0.0398753
16.4555264989 0.0544143
16.9541835709 0.0781922
17.4528409228 0.098489
17.9514985548 0.121091
18.4501564669 0.195269
18.9488146591 0.263373
19.4474731315 0.310322
19.946131884 0.321546
20.4447909168 0.311061
20.9434502298 0.345204
21.4421098231 0.400825
21.9407696967 0.477343
22.4394298507 0.547419
22.9380902851 0.61084
23.4367509999 0.649604
23.9354119951 0.679491
24.4340732708 0.707756
24.9327348271 0.676096
