-24.9418381864 1.65873
-24.4430077193 1.62826
-23.9441769956 1.57941
-23.4453460154 1.55276
-22.9465147785 1.50734
-22.447683285 1.5151
-21.9488515349 1.51069
-21.4500195281 1.5141
-20.9511872645 1.48558
-20.4523547443 1.48867
-19.9535219672 1.46789
-19.4546889333 1.41647
-18.9558556427 1.34533
-18.4570220951 1.27006
-17.9581882907 1.24656
-17.4593542293 1.22886
-16.960519911 1.20671
-16.4616853357 1.18827
-15.9628505034 1.17296
-15.4640154141 1.17088
-14.9651800677 1.18535
-14.4663444643 1.19901
-13.9675086037 1.19323
-13.4686724859 1.17501
-12.969836111 1.13298
-12.4709994789 1.05179
-11.9721625895 0.948547
-11.4733254429 0.865206
-10.974488039 0.849829
-10.4756503778 0.817412
-9.9768124592 0.795757
-9.47797428324 0.760435
-8.97913584987 0.67567
-8.48029715907 0.629137
-7.9814582108 0.581283
-7.48261900504 0.533868
-6.98377954176 0.497886
-6.48493982093 0.441315
-5.98609984252 0.367842
-5.4872596065 0.249264
-4.98841911284 0.145655
-4.48957836153 0.0906895
-3.99073735251 0.0556352
-3.49189608578 0.0392941
-2.99305456129 0.0324866
-2.49421277902 0.0336863
-1.99537073895 0.032558
-1.49652844104 0.0336761
-0.997685885263 0.0362332
-0.498843071592 0.0370453
0 0.0365899
0.498843329544 0.0386728
0.997686917068 0.0428521
1.4965307626 0.0525296
1.99537486617 0.0662613
2.4942192278 0.0694545
2.99306384753 0.0523054
3.49190872538 0.0441081
3.99075386138 0.0347817
4.48959925556 0.0197105
4.98844490796 0.0201175
5.48729081858 0.0332668
5.98613698747 0.0194716
6.48498341466 0.00590937
6.98383010017 0
7.48267704402 0.0140767
7.98152424626 0.0141983
8.48037170691 0.052431
8.97921942599 0.132573
9.47806740353 0.256204
9.97691563957 0.390296
10.4757641341 0.506164
10.9746128872 0.637945
11.4734618989 0.801687
11.9723111692 0.968517
12.4711606982 1.08866
12.9700104858 1.18484
13.468860532 1.24658
13.9677108371 1.30301
14.4665614008 1.34373
14.9654122234 1.40337
15.4642633047 1.48377
15.9631146449 1.46598
16.4619662439 1.43333
16.9608181018 1.41819
17.4596702187 1.42631
17.9585225945 1.44125
18.4573752293 1.45896
18.956228123 1.44089
19.4550812758 1.41579
19.9539346877 1.42732
20.4527883587 1.4679
20.9516422888 1.52029
21.450496478 1.52557
21.9493509264 1.5756
22.448205634 1.49064
22.9470606008 1.49101
23.4459158269 1.50016
23.9447713123 1.53209
24.443627057 1.49599
24.942483061 1.46482
