-24.9781327087 1.2831
-24.4785747147 1.23633
-23.9790165308 1.18216
-23.4794581567 1.19798
-22.9798995926 1.17619
-22.4803408385 1.14601
-21.9807818942 1.13877
-21.4812227599 1.13165
-20.9816634354 1.11487
-20.4821039208 1.08319
-19.9825442162 1.06562
-19.4829843213 1.07621
-18.9834242364 1.09853
-18.4838639612 1.14014
-17.9843034959 1.18099
-17.4847428404 1.14625
-16.9851819948 1.12275
-16.4856209589 1.11619
-15.9860597328 1.13764
-15.4864983165 1.11107
-14.9869367099 1.08353
-14.4873749131 1.06974
-13.987812926 1.0491
-13.4882507487 1.04926
-12.9886883811 1.03528
-12.4891258232 1.00996
-11.989563075 0.973185
-11.4900001365 0.928558
-10.9904370077 0.834821
-10.4908736885 0.702241
-9.99131017902 0.600739
-9.49174647916 0.567672
-8.99218258893 0.527269
-8.49261850833 0.455228
-7.99305423734 0.362916
-7.49348977595 0.280482
-6.99392512415 0.223315
-6.49436028194 0.199376
-5.99479524929 0.208125
-5.4952300262 0.254698
-4.99566461266 0.251233
-4.49609900865 0.227874
-3.99653321417 0.218427
-3.49696722921 0.203487
-2.99740105375 0.160278
-2.49783468779 0.126016
-1.99826813131 0.0898219
-1.4987013843 0.0457681
-0.999134446752 0.0341309
-0.499567318656 0.0282308
0 0.0147077
0.499567509226 0.0069266
0.999135209034 0.01142
1.49870309943 0.0202892
1.99827118043 0.0210728
2.49783945205 0.0160038
2.99740791429 0
3.49697656717 0.0080811
3.99654541069 0.0434139
4.49611444486 0.0910778
4.99568366971 0.140575
5.49525308523 0.17176
5.99482269144 0.208794
6.49439248835 0.267926
6.99396247597 0.28665
7.49353265431 0.291447
7.99310302338 0.316037
8.49267358319 0.330492
8.99224433376 0.355289
9.49181527508 0.464775
9.99138640719 0.478351
10.4909577301 0.5405
10.9905292438 0.632327
11.4901009482 0.730466
11.9896728435 0.830017
12.4892449297 0.857675
12.9888172066 0.877235
13.4883896745 0.883529
13.9879623331 0.852923
14.4875351827 0.796083
14.9871082231 0.783159
15.4866814544 0.802105
15.9862548766 0.795986
16.4858284898 0.760268
16.9854022938 0.744371
17.4849762888 0.746514
17.9845504747 0.723762
18.4841248516 0.708927
18.9836994194 0.729987
19.4832741783 0.76968
19.9828491281 0.779429
20.4824242689 0.814998
20.9819996007 0.840514
21.4815751235 0.898845
21.9811508374 0.966267
22.4807267423 0.960968
22.9803028382 0.916959
23.4798791252 0.820757
23.9794556033 0.793272
24.4790322724 0.847668
24.9786091327 0.901179
