-24.975314003 0.449893
-24.4758126345 0.403551
-23.9763110657 0.399711
-23.4768092967 0.426386
-22.9773073273 0.429867
-22.4778051577 0.399302
-21.9783027877 0.375783
-21.4788002174 0.383087
-20.9792974467 0.373531
-20.4797944757 0.372145
-19.9802913042 0.365991
-19.4807879325 0.354149
-18.9812843603 0.348813
-18.4817805876 0.356512
-17.9822766146 0.384416
-17.4827724412 0.427091
-16.9832680672 0.458011
-16.4837634929 0.464145
-15.984258718 0.464047
-15.4847537427 0.46327
-14.9852485669 0.453654
-14.4857431905 0.490924
-13.9862376137 0.516707
-13.4867318363 0.535172
-12.9872258583 0.575204
-12.4877196798 0.629441
-11.9882133007 0.629881
-11.4887067211 0.641818
-10.9891999408 0.608553
-10.48969296 0.575341
-9.99018577851 0.5365
-9.4906783964 0.490951
-8.99117081365 0.440295
-8.49166303024 0.381285
-7.99215504616 0.316879
-7.4926468614 0.260835
-6.99313847595 0.2287
-6.49362988979 0.218479
-5.99412110291 0.191364
-5.49461211531 0.192371
-4.99510292696 0.175917
-4.49559353786 0.148555
-3.99608394799 0.12079
-3.49657415734 0.0776089
-2.99706416591 0.041361
-2.49755397367 0.019445
-1.99804358061 0.00777382
-1.49853298673 0.0079849
-0.999022192008 0.025612
-0.499511196436 0.0391034
0 0.0292304
0.499511397312 0.0195325
0.99902299551 0.0113377
1.49853479461 0.00393185
1.99804679462 0
2.49755899556 0.011153
2.99707139743 0.0364212
3.49658400025 0.065248
3.99609680403 0.0641739
4.49560980878 0.0613584
4.99512301452 0.0722653
5.49463642125 0.0651202
5.99415002899 0.0727406
6.49366383776 0.091153
6.99317784755 0.134366
7.4926920584 0.176002
7.99220647029 0.201948
8.49172108326 0.220031
8.99123589731 0.248102
9.49075091245 0.280862
9.9902661287 0.33774
10.4897815461 0.442345
10.9892971646 0.525368
11.4888129842 0.57387
11.988329005 0.610171
12.4878452269 0.637268
12.9873616501 0.633786
13.4868782744 0.632121
13.9863950999 0.626749
14.4859121266 0.592285
14.9854293546 0.590712
15.4849467838 0.603605
15.9844644142 0.631766
16.4839822459 0.651846
16.9835002789 0.655721
17.4830185132 0.655061
17.9825369488 0.657717
18.4820555856 0.657913
18.9815744238 0.678434
19.4810934633 0.695483
19.9806127042 0.701533
20.4801321464 0.715391
20.97965179 0.729527
21.479171635 0.748347
21.9786916814 0.743407
22.4782119292 0.752944
22.9777323784 0.830975
23.477253029 0.894323
23.976773881 0.969896
24.4762949345 1.09216
24.9758161895 1.20906
