-24.9306194702 1.48274
-24.4320138032 1.4508
-23.9334078624 1.42723
-23.4348016477 1.4408
-22.9361951591 1.4344
-22.4375883966 1.38147
-21.9389813601 1.33548
-21.4403740496 1.34741
-20.941766465 1.34679
-20.4431586064 1.30479
-19.9445504736 1.27837
-19.4459420668 1.27917
-18.9473333857 1.26796
-18.4487244304 1.2246
-17.9501152009 1.18694
-17.4515056971 1.15594
-16.952895919 1.13298
-16.4542858665 1.11642
-15.9556755396 1.09441
-15.4570649384 1.02855
-14.9584540626 0.991654
-14.4598429124 0.978495
-13.9612314877 0.974805
-13.4626197884 0.973046
-12.9640078145 0.961031
-12.465395566 0.939669
-11.9667830428 0.91209
-11.4681702449 0.875935
-10.9695571723 0.841417
-10.470943825 0.822311
-9.97233020283 0.813992
-9.47371630585 0.819944
-8.97510213401 0.785047
-8.47648768726 0.745547
-7.97787296559 0.70006
-7.47925796894 0.652257
-6.9806426973 0.600498
-6.48202715062 0.55131
-5.98341132887 0.516819
-5.48479523201 0.483996
-4.98617886002 0.437623
-4.48756221286 0.362408
-3.98894529049 0.289471
-3.49032809288 0.228892
-2.99171061999 0.171135
-2.4930928718 0.116821
-1.99447484826 0.0830164
-1.49585654935 0.0652751
-0.99723797502 0.0561488
-0.49861912525 0.0502037
0 0.0417871
0.498619400763 0.0324785
0.997239077074 0.0332792
1.49585902897 0.0339846
1.99447925647 0.0210854
2.49309975963 0.00910372
2.99172053847 0
3.49034159303 0.0220837
3.98896292334 0.031477
4.48758452944 0.0236109
4.98620641136 0.0442724
5.48482856913 0.0838645
5.98345100279 0.0873126
6.48207371237 0.0833101
6.98069669791 0.0937327
7.47931995944 0.127474
7.97794349699 0.222133
8.4765673106 0.287638
8.9751914003 0.321432
9.47381576613 0.317867
9.97244040811 0.299743
10.4710653263 0.270581
10.9696905207 0.246325
11.4683159914 0.22281
11.9669417383 0.198026
12.4655677616 0.191833
12.9641940613 0.273691
13.4628206374 0.373666
13.9614474898 0.424357
14.4600746188 0.467299
14.9587020243 0.525117
15.4573297062 0.579264
15.9559576648 0.622778
16.4545858999 0.677982
16.9532144117 0.748214
17.4518432002 0.823677
17.9504722654 0.873778
18.4491016073 0.910136
18.9477312259 0.937102
19.4463611214 0.954372
19.9449912937 0.987268
20.4436217429 0.959387
20.942252469 0.931362
21.440883472 0.917614
21.939514752 0.913059
22.438146309 0.895762
22.936778143 0.8558
23.4354102542 0.79242
23.9340426424 0.726667
24.4326753078 0.666369
24.9313082503 0.635091
