-24.9306196346 1.2439
-24.4320139644 1.24535
-23.9334080203 1.23563
-23.4348018023 1.24096
-22.9361953105 1.23733
-22.4375885447 1.22725
-21.9389815049 1.18529
-21.4403741911 1.13767
-20.9417666033 1.1271
-20.4431587414 1.10251
-19.9445506054 1.10215
-19.4459421952 1.11588
-18.9473335109 1.09618
-18.4487245523 1.07162
-17.9501153195 1.05054
-17.4515058125 1.00781
-16.9528960311 0.983337
-16.4542859753 1.03339
-15.9556756452 1.05717
-15.4570650406 1.03778
-14.9584541616 1.02955
-14.4598430081 1.0373
-13.9612315801 1.03382
-13.4626198775 1.0263
-12.9640079003 1.02716
-12.4653956485 1.01951
-11.966783122 1.00014
-11.4681703209 0.984584
-10.969557245 0.968205
-10.4709438944 0.909723
-9.97233026892 0.867246
-9.47371636864 0.868842
-8.9751021935 0.846337
-8.47648774346 0.801454
-7.97787301849 0.767803
-7.47925801855 0.746561
-6.9806427436 0.726961
-6.48202719362 0.687362
-5.98341136857 0.653101
-5.48479526841 0.621072
-4.98617889312 0.585527
-4.48756224265 0.546042
-3.98894531697 0.498921
-3.49032811606 0.439399
-2.99171063986 0.374692
-2.49309288836 0.305821
-1.99447486151 0.233032
-1.49585655929 0.159772
-0.997237981648 0.101631
-0.498619128564 0.0571742
0 0.0327241
0.498619404079 0.0221711
0.997239083706 0.0203938
1.49585903892 0.0224351
1.99447926974 0.00886816
2.49309977622 0.000175138
2.99172055838 0
3.49034161626 0.0078679
3.9889629499 0.0111862
4.48758455932 0.0113323
4.98620644456 0.0480418
5.48482860566 0.104868
5.98345104265 0.114961
6.48207375556 0.117692
6.98069674443 0.18103
7.47932000928 0.24213
7.97794355017 0.289369
8.47656736711 0.392089
8.97519146014 0.487457
9.47381582931 0.579572
9.97244047463 0.642557
10.4710653961 0.677201
10.9696905939 0.685303
11.4683160679 0.684787
11.9669418182 0.610275
12.4655678449 0.54596
12.9641941479 0.507837
13.4628207273 0.500043
13.9614475831 0.507328
14.4600747154 0.522788
14.9587021242 0.533134
15.4573298095 0.546197
15.9559577714 0.555821
16.4545860099 0.581491
16.9532145251 0.637599
17.4518433169 0.710788
17.9504723854 0.777021
18.4491017307 0.840104
18.9477313527 0.910945
19.4463612515 0.974286
19.9449914272 1.03516
20.4436218797 1.04323
20.9422526092 1.04694
21.4408836155 1.03157
21.9395148989 1.02956
22.4381464593 1.07942
22.9367782967 1.11059
23.4354104112 1.12956
23.9340428028 1.10006
24.4326754715 1.06414
24.9313084174 0.976943
