-24.978355046 1.19113
-24.4787926299 1.20878
-23.9792300227 1.25477
-23.4796672245 1.30793
-22.9801042352 1.34768
-22.4805410548 1.36108
-21.9809776834 1.34616
-21.4814141208 1.3349
-20.9818503671 1.32302
-20.4822864224 1.29455
-19.9827222864 1.25695
-19.4831579594 1.1518
-18.9835934412 1.02714
-18.4840287318 0.912962
-17.9844638313 0.861732
-17.4848987396 0.821218
-16.9853334566 0.813055
-16.4857679825 0.729984
-15.9862023172 0.581184
-15.4866364606 0.490592
-14.9870704128 0.449754
-14.4875041738 0.412095
-13.9879377434 0.395017
-13.4883711219 0.409846
-12.988804309 0.416482
-12.4892373049 0.420103
-11.9896701094 0.450466
-11.4901027226 0.478533
-10.9905351445 0.450436
-10.4909673751 0.436007
-9.99139941435 0.41081
-9.49183126222 0.363627
-8.99226291873 0.316008
-8.49269438386 0.263533
-7.9931256576 0.221349
-7.49355673995 0.16188
-6.99398763088 0.110802
-6.4944183304 0.111352
-5.99484883848 0.12683
-5.49527915512 0.0992763
-4.99570928031 0.0755629
-4.49613921404 0.0606802
-3.99656895629 0.0530221
-3.49699850706 0.0611158
-2.99742786634 0.0238773
-2.49785703411 0.00949739
-1.99828601036 0.00733135
-1.49871479509 0.00842075
-0.999143388277 0.0161405
-0.499571789918 0.00965785
0 0
0.499571981487 0.00814062
0.999144154553 0.0108732
1.49871651921 0.0142467
1.99828907547 0.0125645
2.49786182334 0.00645826
2.99743476283 0.00609142
3.49700789396 0.0113355
3.99658121673 0.00664492
4.49615473115 0.00625336
4.99572843724 0.00638067
5.495302335 0.00787851
5.99487642445 0.042268
6.4944507056 0.100048
6.99402517845 0.173473
7.49359984302 0.255028
7.99317469932 0.351053
8.49274974736 0.436677
8.99232498715 0.501485
9.4919004187 0.583608
9.99147604201 0.662405
10.4910518571 0.705994
10.990627864 0.714525
11.4902040627 0.717387
11.9897804532 0.766181
12.4893570355 0.787328
12.9889338097 0.82591
13.4885107757 0.839001
13.9880879336 0.822622
14.4876652833 0.786827
14.9872428249 0.728466
15.4868205584 0.669431
15.9863984838 0.634071
16.485976601 0.627832
16.9855549102 0.632949
17.4851334114 0.633834
17.9847121045 0.636681
18.4842909895 0.65981
18.9838700665 0.701061
19.4834493354 0.767968
19.9830287964 0.887247
20.4826084493 0.957315
20.9821882942 0.998676
21.4817683311 1.0353
21.9813485601 1.106
22.4809289811 1.16638
22.9805095941 1.21819
23.4800903992 1.24436
23.9796713964 1.32938
24.4792525856 1.37414
24.9788339669 1.29931
