-24.9326869653 0.483263
-24.4340399247 0.498301
-23.9353926112 0.500516
-23.4367450248 0.485876
-22.9380971655 0.470189
-22.4394490332 0.469755
-21.9408006278 0.479281
-21.4421519494 0.493138
-20.9435029979 0.511327
-20.4448537733 0.53818
-19.9462042756 0.552025
-19.4475545046 0.538172
-18.9489044605 0.520059
-18.4502541431 0.511339
-17.9516035524 0.521985
-17.4529526884 0.549738
-16.954301551 0.586755
-16.4556501403 0.562135
-15.9569984561 0.515719
-15.4583464985 0.446359
-14.9596942674 0.394387
-14.4610417628 0.389763
-13.9623889847 0.398473
-13.4637359329 0.423829
-12.9650826076 0.441634
-12.4664290086 0.445933
-11.9677751359 0.439841
-11.4691209895 0.436873
-10.9704665693 0.452782
-10.4718118754 0.454763
-9.97315690762 0.455224
-9.47450166602 0.44323
-8.97584615053 0.41966
-8.47719036113 0.370553
-7.97853429777 0.314196
-7.47987796044 0.298946
-6.98122134909 0.289555
-6.48256446369 0.262324
-5.98390730421 0.223675
-5.48524987061 0.192693
-4.98659216287 0.16931
-4.48793418094 0.157348
-3.98927592481 0.146507
-3.49061739442 0.135712
-2.99195858975 0.154587
-2.49329951077 0.143047
-1.99464015744 0.12295
-1.49598052973 0.128405
-0.997320627614 0.136167
-0.498660451047 0.13229
0 0.128873
0.498660725559 0.141524
0.997321725663 0.161142
1.49598300035 0.170129
1.99464454964 0.189577
2.49330637358 0.226483
2.9919684722 0.27602
3.49063084552 0.312184
3.98929349359 0.325744
4.48795641644 0.314005
4.9866196141 0.281934
5.4852830866 0.236906
5.98394683398 0.207603
6.48261085626 0.228753
6.98127515349 0.282144
7.47993972569 0.322364
7.9786045729 0.362919
8.47726969515 0.40383
8.97593509247 0.444293
9.4746007649 0.472585
9.97326671247 0.462374
10.4719329352 0.426073
10.9705994332 0.355128
11.4692662063 0.29359
11.9679332548 0.250741
12.4666005786 0.245263
12.9652681777 0.293411
13.4639360521 0.354784
13.962604202 0.410593
14.4612726273 0.400535
14.9599413281 0.328561
15.4586103044 0.302032
15.9572795562 0.297612
16.4559490836 0.297278
16.9546188866 0.272867
17.4532889652 0.235967
17.9519593194 0.203137
18.4506299494 0.154251
18.9493008551 0.101485
19.4479720366 0.0808461
19.9466434939 0.0880605
20.445315227 0.0809198
20.943987236 0.0747888
21.4426595208 0.0709509
21.9413320816 0.0676131
22.4400049184 0.0636745
22.9386780311 0.0522692
23.4373514199 0.024915
23.9360250847 0
24.4346990256 0.0172392
24.9333732427 0.0628989
