-24.9443474571 1.05254
-24.445466707 1.03974
-23.9465857044 1.01911
-23.4477044492 0.990761
-22.9488229413 0.952329
-22.4499411807 0.916799
-21.9510591675 0.953481
-21.4521769016 0.938816
-20.9532943828 0.919897
-20.4544116114 0.94469
-19.9555285871 0.946901
-19.45664531 0.966593
-18.95776178 1.03482
-18.4588779971 1.07934
-17.9599939613 1.14505
-17.4611096726 1.228
-16.9622251309 1.32095
-16.4633403362 1.37055
-15.9644552885 1.3479
-15.4655699878 1.28744
-14.9666844339 1.23025
-14.467798627 1.17044
-13.9689125669 1.12279
-13.4700262536 1.08788
-12.9711396872 1.01878
-12.4722528675 0.967058
-11.9733657946 0.952886
-11.4744784685 0.906285
-10.975590889 0.860409
-10.4767030562 0.764992
-9.97781497002 0.719729
-9.47892663048 0.707472
-8.98003803752 0.712739
-8.48114919114 0.722696
-7.98226009128 0.570683
-7.48337073794 0.392019
-6.98448113107 0.248829
-6.48559127066 0.158019
-5.98670115667 0.104005
-5.48781078908 0.0813087
-4.98892016786 0.0756698
-4.49002929298 0.0861804
-3.99113816442 0.0786011
-3.49224678215 0.063566
-2.99335514613 0.0553205
-2.49446325636 0.056896
-1.99557111278 0.0538377
-1.49667871539 0.0493618
-0.997786064143 0.0413828
-0.498893159023 0.0361939
0 0.0308126
0.498893412954 0.0261259
0.997787079867 0.0310223
1.49668100076 0.0379175
1.99557517568 0.0388417
2.49446960463 0.037079
2.99336428765 0.0152797
3.49225922476 0
3.99115441599 0.00134584
4.49004986138 0.0375727
4.98894556094 0.104593
5.48784151471 0.149974
5.98673772271 0.168025
6.48563418496 0.212901
6.98453090151 0.273392
7.48342787236 0.311322
7.98232509756 0.314924
8.48122257712 0.302795
8.98012031108 0.282775
9.47901829946 0.277586
9.97791654229 0.273303
10.4768150396 0.275189
10.9757137914 0.257225
11.4746127978 0.237822
11.9735120587 0.289727
12.4724115741 0.381928
12.9713113442 0.408732
13.470211369 0.431367
13.9691116484 0.483811
14.4680121825 0.569733
14.9669129713 0.631739
15.4658140149 0.674172
15.9647153132 0.717838
16.4636168664 0.767777
16.9625186744 0.798892
17.4614207372 0.825398
17.9603230549 0.858093
18.4592256276 0.891361
18.9581284551 0.931979
19.4570315377 0.99271
19.9559348752 1.05131
20.4548384678 1.10436
20.9537423153 1.15751
21.452646418 1.2169
21.9515507758 1.25871
22.4504553887 1.2788
22.9493602568 1.30209
23.44826538 1.34137
23.9471707585 1.35518
24.4460763921 1.33198
24.9449822811 1.30983
