-24.941178545 0.725445
-24.4423612961 0.801228
-23.9435437896 0.853272
-23.4447260255 0.93451
-22.9459080037 0.988858
-22.4470897243 1.08979
-21.9482711873 1.14432
-21.4494523924 1.13931
-20.9506333399 1.19488
-20.4518140296 1.27789
-19.9529944614 1.30989
-19.4541746354 1.2373
-18.9553545516 1.16445
-18.4565342098 1.12825
-17.9577136102 1.11236
-17.4588927526 1.11527
-16.960071637 1.08186
-16.4612502634 1.05075
-15.9624286317 1.05582
-15.463606742 1.0515
-14.9647845942 1.02465
-14.4659621883 1.0024
-13.9671395242 0.989547
-13.4683166019 0.975242
-12.9694934214 0.953209
-12.4706699826 0.922102
-11.9718462856 0.906947
-11.4730223303 0.889739
-10.9741981167 0.843244
-10.4753736446 0.79979
-9.97654891425 0.774108
-9.47772392544 0.710366
-8.97889867818 0.633262
-8.48007317244 0.550763
-7.9812474082 0.474929
-7.48242138543 0.435292
-6.98359510409 0.452096
-6.48476856416 0.453367
-5.98594176561 0.400926
-5.48711470841 0.393628
-4.98828739252 0.406511
-4.48945981793 0.461878
-3.99063198461 0.499679
-3.49180389252 0.498643
-2.99297554163 0.474464
-2.49414693192 0.447568
-1.99531806336 0.406769
-1.49648893591 0.340418
-0.997659549559 0.277117
-0.498829904263 0.212376
0 0.153783
0.498830163261 0.11711
0.997660585548 0.117194
1.49649126689 0.1223
1.99532220732 0.121836
2.49415340686 0.127923
2.99298486554 0.196799
3.49181658339 0.21592
3.99064856044 0.110941
4.48948079672 0.0284368
4.98831329226 0
5.48714604708 0.018451
5.98597906122 0.0954273
6.48481233471 0.230347
6.98364586756 0.325525
7.48247965982 0.394531
7.98131371151 0.442735
8.48014802265 0.413827
8.97898259329 0.398192
9.47781742344 0.444197
9.97665251313 0.528574
10.4754878624 0.644706
10.9743234713 0.803522
11.4731593398 0.925577
11.971995468 0.952092
12.4708318558 0.912957
12.9696685034 0.881434
13.4685054107 0.878845
13.9673425778 0.904531
14.4661800047 0.959221
14.9650176914 1.03985
15.463855638 1.18199
15.9626938445 1.31504
16.4615323109 1.4054
16.9603710373 1.45305
17.4592100236 1.47912
17.9580492699 1.50253
18.4568887763 1.53341
18.9557285428 1.57821
19.4545685693 1.6306
19.9534088559 1.64246
20.4522494027 1.63818
20.9510902097 1.60372
21.4499312769 1.55558
21.9487726043 1.45392
22.4476141919 1.44359
22.9464560399 1.39494
23.4452981482 1.32914
23.9441405168 1.25385
24.4429831459 1.22059
24.9418260353 1.16931
