-24.9306203909 2.1712
-24.4320147056 2.11868
-23.9334087465 2.08133
-23.4348025135 2.02686
-22.9361960067 1.96455
-22.4375892258 1.91859
-21.938982171 1.85551
-21.4403748422 1.80317
-20.9417672394 1.78812
-20.4431593624 1.79851
-19.9445512114 1.77083
-19.4459427861 1.71958
-18.9473340867 1.7028
-18.4487251131 1.67605
-17.9501158653 1.65542
-17.4515063431 1.64156
-16.9528965466 1.62422
-16.4542864758 1.58227
-15.9556761306 1.55415
-15.4570655109 1.53598
-14.9584546168 1.52361
-14.4598434482 1.50398
-13.9612320051 1.49824
-13.4626202874 1.48136
-12.9640082951 1.45913
-12.4653960282 1.44896
-11.9667834866 1.42738
-11.4681706703 1.40869
-10.9695575793 1.41403
-10.4709442135 1.37741
-9.9723305729 1.32302
-9.47371665747 1.29277
-8.97510246717 1.30402
-8.47648800197 1.29824
-7.97787326183 1.20692
-7.47925824672 1.14392
-6.9806429566 1.1118
-6.48202739143 1.05376
-5.9834115512 1.00839
-5.48479543585 0.995351
-4.98617904536 0.994154
-4.48756237969 0.95153
-3.9889454388 0.893632
-3.49032822267 0.876763
-2.99171073126 0.836028
-2.49309296454 0.762046
-1.99447492247 0.681333
-1.49585660501 0.598153
-0.997238012136 0.561762
-0.498619143811 0.535345
0 0.548332
0.49861941933 0.551041
0.997239114214 0.53211
1.49585908469 0.518237
1.99447933078 0.515565
2.49309985253 0.493254
2.99172064996 0.459681
3.49034172313 0.44841
3.98896307205 0.457453
4.48758469676 0.470375
4.9862065973 0.458163
5.4848287737 0.445822
5.98345122599 0.510906
6.48207395421 0.588083
6.98069695839 0.619294
7.47932023857 0.627426
7.97794379478 0.629557
8.47656762705 0.607504
8.97519173542 0.63897
9.47381611993 0.736942
9.9724407806 0.771388
10.4710657175 0.749333
10.9696909306 0.724116
11.4683164199 0.70173
11.9669421856 0.676653
12.4655682276 0.677852
12.964194546 0.680021
13.4628211408 0.678085
13.961448012 0.688411
14.4600751597 0.692175
14.9587025839 0.696458
15.4573302846 0.611689
15.9559582619 0.406041
16.4545865158 0.280707
16.9532150464 0.315561
17.4518438536 0.431205
17.9504729376 0.413748
18.4491022982 0.271677
18.9477319357 0
19.44636185 0.186308
19.9449920411 0.515002
20.4436225091 0.810758
20.942253254 1.0223
21.4408842758 1.21618
21.9395155746 1.32074
22.4381471505 1.29752
22.9367790034 1.24313
23.4354111333 1.18142
23.9340435404 1.18386
24.4326762246 1.20073
24.9313091861 1.23908
