-24.9752574398 0.425441
-24.4757571961 0.414964
-23.9762567525 0.400788
-23.4767561088 0.399194
-22.9772552651 0.39193
-22.4777542213 0.380887
-21.9782529775 0.425182
-21.4787515336 0.463192
-20.9792498896 0.489113
-20.4797480455 0.501925
-19.9802460013 0.499854
-19.480743757 0.512234
-18.9812413125 0.571932
-18.4817386679 0.594334
-17.9822358231 0.62109
-17.4827327781 0.692075
-16.983229533 0.806609
-16.4837260877 0.837637
-15.9842224421 0.81398
-15.4847185964 0.77107
-14.9852145504 0.767534
-14.4857103041 0.803824
-13.9862058576 0.834425
-13.4867012108 0.816957
-12.9871963637 0.763016
-12.4876913164 0.756257
-11.9881860687 0.770299
-11.4886806207 0.74609
-10.9891749724 0.713147
-10.4896691237 0.665889
-9.99016307468 0.63861
-9.49065682527 0.650755
-8.99115037549 0.628326
-8.49164372531 0.599662
-7.99213687472 0.550124
-7.49262982372 0.476964
-6.99312257228 0.412758
-6.4936151204 0.333113
-5.99410746806 0.234945
-5.49459961525 0.114851
-4.99509156197 0.0680144
-4.49558330819 0.0207797
-3.99607485391 0
-3.4965661991 0.0115066
-2.99705734378 0.0324108
-2.4975482879 0.038793
-1.99803903148 0.0388371
-1.49852957449 0.0373467
-0.99901991692 0.0325318
-0.499510058761 0.0266669
0 0.0232249
0.499510259375 0.089957
0.999020719377 0.223883
1.49853138002 0.168557
1.99804224131 0.160593
2.49755330326 0.237623
2.99706456589 0.319547
3.49657602921 0.378849
3.99608769323 0.401588
4.49559955796 0.4013
4.99511162341 0.426626
5.49462388959 0.457767
5.99413635653 0.470984
6.49364902422 0.482453
6.99316189269 0.501551
7.49267496194 0.504526
7.99218823199 0.507473
8.49170170285 0.498336
8.99121537452 0.474453
9.49072924703 0.447124
9.99024332039 0.433981
10.4897575946 0.401229
10.9892720697 0.367574
11.4887867456 0.347884
11.9883016225 0.322744
12.4878167002 0.299495
12.9873319789 0.241037
13.4868474585 0.205017
13.9863631391 0.196707
14.4858790206 0.205207
14.985395103 0.217129
15.4849113865 0.228108
15.9844278709 0.254116
16.4839445563 0.269926
16.9834614427 0.29532
17.4829785302 0.359087
17.9824958187 0.357654
18.4820133083 0.333112
18.9815309989 0.325014
19.4810488906 0.322605
19.9805669833 0.343019
20.4800852772 0.363975
20.9796037722 0.379256
21.4791224683 0.423416
21.9786413655 0.552255
22.4781604639 0.676303
22.9776797634 0.783319
23.4771992641 0.869251
23.976718966 0.983931
24.476238869 1.07456
24.9757589733 1.00176
