-24.9313802366 0.779388
-24.4327593975 0.792768
-23.9341382827 0.798483
-23.4355168924 0.796563
-22.9368952263 0.795472
-22.4382732845 0.790102
-21.9396510671 0.782171
-21.4410285738 0.799341
-20.9424058047 0.834062
-20.4437827598 0.851336
-19.945159439 0.861408
-19.4465358423 0.873297
-18.9479119696 0.849984
-18.449287821 0.808195
-17.9506633964 0.781181
-17.4520386957 0.767941
-16.9534137189 0.745354
-16.4547884661 0.72393
-15.956162937 0.704793
-15.4575371318 0.674158
-14.9589110504 0.648287
-14.4602846928 0.656171
-13.9616580588 0.676116
-13.4630311486 0.679422
-12.9644039619 0.689379
-12.4657764989 0.719233
-11.9671487595 0.708438
-11.4685207437 0.670596
-10.9698924513 0.632431
-10.4712638824 0.599202
-9.97263503699 0.575206
-9.47400591497 0.528767
-8.97537651633 0.46578
-8.47674684104 0.413309
-7.97811688906 0.371241
-7.47948666035 0.319049
-6.98085615489 0.314245
-6.48222537263 0.245238
-5.98359431355 0.188648
-5.48496297762 0.170413
-4.98633136479 0.148926
-4.48769947503 0.123267
-3.98906730832 0.0875297
-3.49043486461 0.0608422
-2.99180214388 0.0487475
-2.49316914608 0.0498987
-1.99453587119 0.0581532
-1.49590231917 0.0453154
-0.997268489986 0.0252199
-0.498634383607 0.0199778
0 0.0187274
0.498634660871 0.0109577
0.997269599039 0.00281953
1.49590481454 0
1.9945403074 0.00167736
2.49317607766 0.00858143
2.99181212536 0.0134341
3.49044845052 0.0211662
3.98908505318 0.0290091
4.48772193337 0.0244749
4.98635909113 0.0149316
5.48499652649 0.00498508
5.98363423948 0.0551817
6.48227223014 0.142247
6.9809104985 0.243527
7.4795490446 0.333148
7.97818786847 0.440821
8.47682697013 0.486835
8.97546634964 0.507385
9.47410600701 0.533367
9.97274594228 0.559494
10.4713861555 0.579702
10.9700266467 0.590864
11.4686674159 0.590348
11.9673084631 0.582115
12.4659497884 0.556647
12.9645913918 0.532318
13.4632332733 0.540109
13.961875433 0.562766
14.4605178709 0.614495
14.9591605871 0.658523
15.4578035815 0.682795
15.9564468542 0.692957
16.4550904053 0.693338
16.9537342347 0.711402
17.4523783426 0.736704
17.9510227289 0.746822
18.4496673936 0.749168
18.9483123369 0.755039
19.4469575587 0.756087
19.9456030591 0.764451
20.4442488381 0.77369
20.9428948957 0.768592
21.441541232 0.756967
21.940187847 0.77815
22.4388347408 0.796284
22.9374819133 0.738467
23.4361293646 0.646684
23.9347770948 0.568406
24.4334251038 0.572859
24.9320733918 0.568155
