-24.9306202484 1.41467
-24.432014566 1.36938
-23.9334086097 1.33526
-23.4348023796 1.29725
-22.9361958755 1.27262
-22.4375890975 1.25543
-21.9389820455 1.22679
-21.4403747196 1.23408
-20.9417671195 1.30664
-20.4431592454 1.32393
-19.9445510972 1.30291
-19.4459426748 1.29034
-18.9473339783 1.25118
-18.4487250075 1.20962
-17.9501157625 1.16847
-17.4515062431 1.14927
-16.9528964495 1.13006
-16.4542863815 1.1085
-15.9556760391 1.09508
-15.4570654223 1.08645
-14.958454531 1.07
-14.4598433653 1.04607
-13.961231925 1.00984
-13.4626202102 0.971942
-12.9640082207 0.948799
-12.4653959566 0.914461
-11.9667834179 0.859522
-11.4681706045 0.807274
-10.9695575163 0.762089
-10.4709441534 0.752401
-9.97233051563 0.728606
-9.47371660306 0.668033
-8.97510241561 0.586077
-8.47648795327 0.513519
-7.97787321599 0.454798
-7.47925820373 0.424436
-6.98064291647 0.382205
-6.48202735417 0.337584
-5.98341151679 0.306261
-5.4847954043 0.276518
-4.98617901668 0.266748
-4.48756235387 0.248479
-3.98894541585 0.213322
-3.49032820259 0.169013
-2.99171071404 0.152396
-2.49309295019 0.17551
-1.99447491098 0.170968
-1.4958565964 0.151009
-0.997238006392 0.135994
-0.498619140938 0.114845
0 0.0956761
0.498619416456 0.0755822
0.997239108466 0.0968152
1.49585907606 0.118162
1.99447931928 0.112268
2.49309983815 0.112542
2.99172063271 0.108651
3.49034170299 0.108654
3.98896304904 0.0957598
4.48758467087 0.0815897
4.98620656852 0.0495215
5.48482874204 0.0271395
5.98345119145 0.0347888
6.48207391678 0.0611749
6.98069691808 0.0840635
7.47932019537 0.1221
7.9779437487 0.167998
8.47656757808 0.209991
8.97519168356 0.242367
9.47381606517 0.243659
9.97244072295 0.255909
10.4710656569 0.277606
10.9696908671 0.307453
11.4683163536 0.321646
11.9669421164 0.363634
12.4655681555 0.355052
12.964194471 0.259541
13.4628210629 0.14407
13.9614479312 0.0385979
14.460075076 0
14.9587024973 0.0217339
15.4573301951 0.0537147
15.9559581695 0.078736
16.4545864205 0.207214
16.9532149482 0.26532
17.4518437525 0.250334
17.9504728335 0.422571
18.4491021913 0.628091
18.9477318259 0.682357
19.4463617372 0.612655
19.9449919254 0.518768
20.4436223905 0.511243
20.9422531325 0.548545
21.4408841514 0.600685
21.9395154473 0.657467
22.4381470203 0.731576
22.9367788702 0.801628
23.4354109973 0.842854
23.9340434014 0.934319
24.4326760828 1.04309
24.9313090412 1.149
