-24.9313776623 0.583946
-24.4327568743 0.566875
-23.9341358106 0.545723
-23.4355144713 0.503357
-22.9368928564 0.491751
-22.4382709658 0.483936
-21.9396487995 0.492118
-21.4410263574 0.49704
-20.9424036395 0.49905
-20.4437806458 0.479089
-19.9451573762 0.443099
-19.4465338307 0.413377
-18.9479100094 0.401773
-18.449285912 0.390676
-17.9506615387 0.37979
-17.4520368893 0.367971
-16.9534119639 0.368666
-16.4547867623 0.357432
-15.9561612847 0.317913
-15.4575355308 0.275334
-14.9589095008 0.272744
-14.4602831946 0.271109
-13.9616566121 0.270009
-13.4630297532 0.265942
-12.9644026181 0.242271
-12.4657752066 0.238299
-11.9671475186 0.253445
-11.4685195543 0.29877
-10.9698913134 0.336578
-10.4712627961 0.343515
-9.97263400225 0.344388
-9.47400493181 0.415632
-8.97537558476 0.454733
-8.47674596108 0.469968
-7.97811606073 0.465143
-7.47948588367 0.447782
-6.98085542986 0.408804
-6.48222469929 0.38105
-5.9835936919 0.343988
-5.48496240768 0.287516
-4.98633084658 0.226968
-4.48769900857 0.168014
-3.98906689362 0.113817
-3.49043450169 0.0751406
-2.99180183275 0.0681803
-2.49316888677 0.0689015
-1.9945356637 0.078059
-1.49590216353 0.0733574
-0.99726838621 0.0413703
-0.498634331712 0.0326493
0 0.0425236
0.498634608958 0.0252582
0.997269495197 0
1.49590465875 0.00725767
1.99454009965 0.0266163
2.49317581793 0.0374922
2.99181181363 0.0358574
3.49044808678 0.0324821
3.98908463741 0.0313561
4.48772146555 0.0364144
4.98635857125 0.0467744
5.48499595453 0.0581784
5.98363361542 0.0695361
6.48227155397 0.0780919
6.9809097702 0.088267
7.47954826415 0.0964984
7.97818703585 0.104341
8.47682608534 0.0965497
8.97546541265 0.0922786
9.47410501781 0.0999208
9.97274490085 0.10239
10.4713850618 0.122281
10.9700255007 0.171763
11.4686662176 0.223111
11.9673072126 0.281185
12.4659484855 0.321279
12.9645900366 0.337857
13.4632318658 0.384715
13.9618739731 0.440515
14.4605163587 0.44539
14.9591590224 0.443201
15.4578019644 0.421168
15.9564451847 0.407526
16.4550886834 0.375421
16.9537324603 0.355323
17.4523765157 0.356506
17.9510208495 0.37628
18.4496654617 0.398073
18.9483103525 0.425856
19.4469555217 0.487382
19.9456009695 0.554109
20.444246696 0.595763
20.942892701 0.614338
21.4415389847 0.578235
21.940185547 0.540223
22.4388323881 0.470765
22.937479508 0.398395
23.4361269066 0.335082
23.9347745841 0.29822
24.4334225405 0.294802
24.9320707757 0.329143
