-24.9411594698 1.17876
-24.4423425995 1.20889
-23.9435254717 1.26712
-23.4447080865 1.33064
-22.9458904437 1.36341
-22.4470725434 1.37083
-21.9482543855 1.38981
-21.44943597 1.3902
-20.9506172969 1.36917
-20.4517983661 1.37475
-19.9529791776 1.3755
-19.4541597315 1.35346
-18.9553400275 1.37205
-18.4565200658 1.41948
-17.9576998463 1.45196
-17.458879369 1.45221
-16.9600586338 1.45634
-16.4612376407 1.35557
-15.9624163896 1.20572
-15.4635948807 1.06569
-14.9647731137 0.947636
-14.4659510887 0.900689
-13.9671288057 0.89507
-13.4683062646 0.943482
-12.9694834655 0.969211
-12.4706604082 0.96507
-11.9718370927 0.94296
-11.4730135191 0.940839
-10.9741896873 0.950957
-10.4753655972 0.954915
-9.97654124881 0.945173
-9.47771664215 0.945134
-8.97889177716 0.946081
-8.48006665381 0.950465
-7.98124127208 0.89625
-7.48241563193 0.770991
-6.98358973333 0.68082
-6.48476357626 0.580038
-5.98593716069 0.458035
-5.48711048658 0.410506
-4.98828355392 0.365505
-4.48945636266 0.312294
-3.99062891278 0.303728
-3.49180120426 0.329438
-2.99297323705 0.34472
-2.49414501115 0.3544
-1.9953165265 0.332125
-1.4964877831 0.293106
-0.997658780896 0.278369
-0.498829519873 0.297556
0 0.32119
0.498829778753 0.281318
0.997659816415 0.242494
1.49649011301 0.209927
1.99532066858 0.187016
2.49415148314 0.162347
2.99298255673 0.142852
3.49181388936 0.137566
3.99064548108 0.106862
4.48947733192 0.0451849
4.98830944189 0
5.48714181103 0.00401897
5.98597443936 0.0343326
6.48480732693 0.0809349
6.98364047375 0.123562
7.48247387985 0.182186
7.98130754527 0.274004
8.48014147002 0.382729
8.97897565415 0.510573
9.47781009768 0.600385
9.97664480063 0.65573
10.475479763 0.676289
10.9743149849 0.670343
11.4731504664 0.664335
11.9719862073 0.736717
12.4708222078 0.888939
12.969658468 1.12495
13.4684949877 1.3635
13.9673317671 1.43883
14.4661688062 1.3875
14.9650061051 1.3483
15.4638436636 1.36495
15.962681482 1.2367
16.4615195601 1.0629
16.9603578981 0.956767
17.4591964959 0.973832
17.9580353536 1.03307
18.4568744713 1.07247
18.9557138488 1.03837
19.4545534864 0.94658
19.9533933839 0.868204
20.4522335415 0.844979
20.9510739592 0.891575
21.4499146369 0.939263
21.9487555748 1.00032
22.4475967728 1.10166
22.9464382309 1.21679
23.4452799493 1.38039
23.9441219279 1.58808
24.4429641668 1.69233
24.941806666 1.74991
