-24.9306199503 1.22934
-24.4320142738 1.2031
-23.9334083234 1.18121
-23.4348020992 1.17509
-22.9361956011 1.17863
-22.437588829 1.17471
-21.938981783 1.1426
-21.4403744629 1.07003
-20.9417668688 1.01082
-20.4431590006 0.989239
-19.9445508583 0.998746
-19.4459424419 1.00236
-18.9473337513 0.992498
-18.4487247864 0.991881
-17.9501155473 0.993913
-17.451506034 1.00393
-16.9528962463 1.01182
-16.4542861842 1.00681
-15.9556758478 1.00131
-15.4570652369 0.993095
-14.9584543516 0.979518
-14.4598431918 0.956885
-13.9612317575 0.9183
-13.4626200486 0.869219
-12.9640080651 0.836061
-12.465395807 0.807893
-11.9667832742 0.784161
-11.4681704667 0.741838
-10.9695573845 0.701244
-10.4709440276 0.648689
-9.9723303958 0.593386
-9.4737164892 0.557243
-8.97510230773 0.548248
-8.47648785137 0.530338
-7.97787312006 0.502966
-7.47925811379 0.48242
-6.98064283251 0.44834
-6.48202727619 0.447504
-5.9834114448 0.413293
-5.4847953383 0.371923
-4.98617895666 0.394058
-4.48756229985 0.374633
-3.98894536783 0.368966
-3.49032816056 0.364543
-2.99171067801 0.35637
-2.49309292016 0.33439
-1.99447488695 0.330879
-1.49585657837 0.33564
-0.997237994375 0.311117
-0.498619134929 0.277724
0 0.260857
0.498619410445 0.259636
0.99723909644 0.212769
1.49585905802 0.167512
1.99447929522 0.112211
2.49309980807 0.0490418
2.99172059661 0.00281814
3.49034166087 0
3.98896300088 0.0109873
4.48758461669 0.0385292
4.98620650832 0.123029
5.4848286758 0.261606
5.98345111918 0.266947
6.48207383848 0.254733
6.98069683374 0.251323
7.47932010499 0.283016
7.97794365227 0.425251
8.47656747561 0.476052
8.97519157505 0.518283
9.47381595061 0.554518
9.97244060234 0.59395
10.4710655303 0.630969
10.9696907344 0.652741
11.4683162148 0.652336
11.9669419716 0.646982
12.4655680046 0.612244
12.964194314 0.594095
13.4628208999 0.55764
13.9614477621 0.495547
14.4600749008 0.447833
14.9587023161 0.439878
15.4573300078 0.430919
15.9559579762 0.42631
16.4545862211 0.432245
16.9532147427 0.445981
17.4518435409 0.465039
17.9504726159 0.486863
18.4491019676 0.497966
18.947731596 0.573705
19.4463615013 0.68834
19.9449916834 0.839345
20.4436221424 0.916982
20.9422528783 0.948987
21.4408838911 0.971677
21.939515181 1.00157
22.4381467478 1.04331
22.9367785917 1.12008
23.4354107126 1.2079
23.9340431107 1.24548
24.4326757859 1.26119
24.9313087382 1.23689
