-24.9313792184 0.327666
-24.4327583995 0.284002
-23.9341373049 0.249218
-23.4355159348 0.265258
-22.9368942889 0.256355
-22.4382723674 0.264327
-21.9396501702 0.307615
-21.4410276971 0.334071
-20.9424049483 0.33742
-20.4437819236 0.37094
-19.9451586231 0.416681
-19.4465350467 0.449382
-18.9479111943 0.425543
-18.4492870659 0.350285
-17.9506626616 0.241488
-17.4520379812 0.136843
-16.9534130248 0.149687
-16.4547877922 0.158165
-15.9561622835 0.179465
-15.4575364986 0.185076
-14.9589104375 0.18573
-14.4602841002 0.191514
-13.9616574866 0.207489
-13.4630305967 0.199173
-12.9644034304 0.178033
-12.4657759878 0.168964
-11.9671482687 0.175484
-11.4685202732 0.188181
-10.9698920012 0.197622
-10.4712634528 0.210056
-9.97263462772 0.225478
-9.4740055261 0.238049
-8.97537614787 0.233922
-8.47674649299 0.238381
-7.97811656143 0.25394
-7.47948635315 0.26292
-6.98085586812 0.263172
-6.48222510631 0.261503
-5.98359406767 0.272188
-5.48496275219 0.26741
-4.98633115982 0.262979
-4.48769929053 0.269829
-3.98906714429 0.273015
-3.49043472107 0.252145
-2.99180202082 0.219451
-2.49316904351 0.18468
-1.99453578912 0.147231
-1.49590225761 0.106289
-0.99726844894 0.0625165
-0.498634363082 0.0326193
0 0.00983716
0.498634640338 0
0.997269557967 0.00284689
1.49590475292 0.0382865
1.99454022523 0.0708496
2.49317597493 0.0752624
2.99181200206 0.0820517
3.49044830665 0.109234
3.98908488873 0.135288
4.48772174833 0.145126
4.9863588855 0.154759
5.48499630026 0.149689
5.98363399265 0.173062
6.4822719627 0.270168
6.98091021044 0.40609
7.47954873591 0.554067
7.97818753914 0.649017
8.47682662017 0.664681
8.97546597903 0.65951
9.47410561575 0.65578
9.97274553037 0.624307
10.4713857229 0.605859
10.9700261934 0.606762
11.4686669419 0.604882
11.9673079685 0.609452
12.4659492731 0.634219
12.9645908558 0.666709
13.4632327166 0.685832
13.9618748556 0.694479
14.4605172728 0.692833
14.9591599682 0.694189
15.4578029419 0.707981
15.9564461939 0.710458
16.4550897242 0.696877
16.9537335329 0.665754
17.45237762 0.625174
17.9510219855 0.59821
18.4496666295 0.59965
18.948311552 0.616754
19.446956753 0.612025
19.9456022326 0.609132
20.4442479908 0.60441
20.9428940276 0.608606
21.4415403431 0.619845
21.9401869373 0.603306
22.4388338102 0.593364
22.9374809619 0.588164
23.4361283924 0.578376
23.9347761017 0.565918
24.4334240899 0.539368
24.932072357 0.508282
