-24.975351732 0.576113
-24.4758496132 0.604393
-23.976347294 0.623203
-23.4768447743 0.645293
-22.9773420541 0.67305
-22.4778391334 0.712109
-21.9783360123 0.757307
-21.4788326906 0.758425
-20.9793291684 0.761303
-20.4798254457 0.778217
-19.9803215224 0.785765
-19.4808173985 0.773851
-18.9813130741 0.764462
-18.4818085491 0.746126
-17.9823038235 0.704319
-17.4827988973 0.632098
-16.9832937704 0.577918
-16.483788443 0.529681
-15.9842829148 0.48888
-15.4847771861 0.436625
-14.9852712566 0.37525
-14.4857651265 0.330421
-13.9862587956 0.313512
-13.4867522641 0.305978
-12.9872455318 0.295451
-12.4877385989 0.289019
-11.9882314651 0.292921
-11.4887241306 0.285127
-10.9892165953 0.248179
-10.4897088593 0.215344
-9.99020092245 0.166911
-9.4906927848 0.109455
-8.99118444633 0.0768555
-8.49167590703 0.0564659
-7.99216716689 0.0439341
-7.49265822589 0.0430095
-6.99314908402 0.0667075
-6.49363974128 0.0536182
-5.99413019764 0.0377385
-5.4946204531 0.0419242
-4.99511050764 0.015227
-4.49560036126 0
-3.99609001393 0.00896373
-3.49657946565 0.0146642
-2.9970687164 0.011169
-2.49755776618 0.0287726
-1.99804661497 0.0369379
-1.49853526276 0.0717014
-0.999023709539 0.0596544
-0.499511955287 0.0386418
0 0.0309708
0.499512156338 0.013626
0.999024513736 0.0115224
1.49853707221 0.0133437
1.99804983177 0.0154497
2.49756279243 0.0204752
2.99707595419 0.0221769
3.49658931708 0.0082691
3.99610288111 0.00332046
4.49561664628 0.00624437
4.9951306126 0.0366583
5.4946447801 0.062246
5.99415914879 0.0976416
6.49367371866 0.148594
6.99318848975 0.156094
7.49270346205 0.158026
7.99221863558 0.174432
8.49173401035 0.194172
8.99124958638 0.202314
9.49076536368 0.213317
9.99028134226 0.228854
10.4897975221 0.254739
10.9893139033 0.264678
11.4888304858 0.302067
11.9883472696 0.361252
12.4878642547 0.443618
12.9873814412 0.488567
13.4868988291 0.528059
13.9864164183 0.574152
14.485934209 0.601418
14.985452201 0.648471
15.4849703944 0.713236
15.9844887893 0.739194
16.4840073856 0.747499
16.9835261833 0.746284
17.4830451825 0.731926
17.9825643832 0.673384
18.4820837853 0.62545
18.981603389 0.612643
19.4811231941 0.638708
19.9806432008 0.677373
20.480163409 0.700296
20.9796838187 0.704207
21.47920443 0.745939
21.9787252429 0.801279
22.4782462573 0.828873
22.9777674734 0.849561
23.477288891 0.873401
23.9768105102 0.887801
24.4763323311 0.896222
24.9758543536 0.906833
