-24.9327121689 0.836644
-24.4340646283 0.870228
-23.9354168145 0.923537
-23.4367687277 0.985262
-22.9381203678 1.04344
-22.4394717348 1.06855
-21.9408228285 1.08477
-21.4421736491 1.08403
-20.9435241964 1.07803
-20.4448744704 1.03771
-19.9462244711 1.00276
-19.4475741984 0.977369
-18.9489236524 0.953008
-18.450272833 0.948606
-17.9516217401 0.935052
-17.4529703737 0.92725
-16.9543187339 0.922309
-16.4556668204 0.926096
-15.9570146334 0.931853
-15.4583621728 0.939512
-14.9597094385 0.91703
-14.4610564306 0.899425
-13.9624031489 0.872994
-13.4637495935 0.86829
-12.9650957643 0.923413
-12.4664416613 0.967074
-11.9677872845 0.986792
-11.4691326338 0.984583
-10.9704777091 0.975715
-10.4718225105 0.985616
-9.97316703798 1.01103
-9.4745112914 1.03633
-8.97585527078 1.03935
-8.47719897608 0.979549
-7.97854240727 0.904425
-7.47988556431 0.860186
-6.98122844718 0.807222
-6.48257105583 0.736539
-5.98391339024 0.670075
-5.48525545037 0.61202
-4.98659723619 0.555943
-4.48793874767 0.499803
-3.98927998476 0.442235
-3.49062094745 0.399487
-2.9919616357 0.357134
-2.49330204947 0.287045
-1.99464218872 0.207924
-1.49598205344 0.12328
-0.99732164358 0.0481852
-0.498660959111 0.0180316
0 0.0116036
0.498661233787 0
0.99732274228 0.00251321
1.49598452552 0.00653984
1.99464658352 0.00850146
2.49330891634 0.00923144
2.991971524 0.010046
3.49063440653 0.0127438
3.98929756397 0.0163546
4.48796099634 0.01278
4.98662470369 0.00850855
5.48528868604 0.0190924
5.98395294344 0.052472
6.4826174759 0.134374
6.98128228347 0.241566
7.47994736617 0.373531
7.97861272405 0.473697
8.47727835713 0.546135
8.97594426544 0.619859
9.47461044903 0.667544
9.97327690792 0.677821
10.4719436421 0.660506
10.9706106517 0.572761
11.4692779367 0.444431
11.9679454971 0.320408
12.466613333 0.259006
12.9652814444 0.288142
13.4639498313 0.301052
13.9626184938 0.31552
14.4612874319 0.361
14.9599566456 0.382112
15.458626135 0.387487
15.9572959001 0.359372
16.4559659409 0.359697
16.9546362575 0.400085
17.4533068498 0.490135
17.951977718 0.647623
18.4506488621 0.771581
18.9493202821 0.872086
19.4479919779 0.9109
19.9466639498 0.925234
20.4453361976 0.907498
20.9440087214 0.873207
21.4426815214 0.843766
21.9413545974 0.831762
22.4400279495 0.860045
22.9387015778 0.889685
23.4373754822 0.916974
23.9360496629 0.935102
24.4347241199 0.924585
24.9333988531 0.898752
