-24.9417601898 1.82504
-24.4429312708 1.80468
-23.9441020957 1.76678
-23.4452726646 1.72362
-22.9464429774 1.66659
-22.447613034 1.59768
-21.9487828344 1.56185
-21.4499523786 1.55034
-20.9511216666 1.55477
-20.4522906984 1.55701
-19.9534594738 1.55024
-19.4546279929 1.54212
-18.9557962557 1.52746
-18.456964262 1.49728
-17.958132012 1.44782
-17.4592995055 1.44004
-16.9604667426 1.4137
-16.4616337232 1.35298
-15.9628004472 1.29663
-15.4639669147 1.25523
-14.9651331257 1.30106
-14.46629908 1.27294
-13.9674647776 1.22819
-13.4686302186 1.19075
-12.9697954029 1.1008
-12.4709603305 1.02028
-11.9721250013 0.99566
-11.4732894154 0.983153
-10.9744535726 0.931442
-10.475617473 0.857386
-9.97678111648 0.832231
-9.4779445031 0.815837
-8.97910763279 0.822495
-8.48027050553 0.825049
-7.98143312128 0.755523
-7.48259548001 0.688484
-6.98375758171 0.658674
-6.48491942634 0.648487
-5.98608101386 0.6136
-5.48724234426 0.551063
-4.9884034175 0.55622
-4.48956423356 0.519206
-3.9907247924 0.477729
-3.491885094 0.445608
-2.99304513833 0.434608
-2.49420492536 0.405228
-1.99536445506 0.359605
-1.4965237274 0.30945
-0.997682742359 0.321111
-0.498841499901 0.355172
0 0.177566
0.498841757373 0.0748114
0.997683772247 0.0605023
1.49652604465 0.0969574
1.99536857461 0.118261
2.49421136216 0.0973616
2.99305440732 0.0766527
3.49189771012 0.048645
3.9907412706 0.0284921
4.48958508878 0.0274345
4.98842916468 0.00816624
5.48727349835 0
5.9861180898 0.0268213
6.48496293907 0.0517161
6.98380804617 0.146486
7.48265341116 0.24945
7.98149903404 0.335084
8.48034491485 0.398222
8.97919105362 0.490267
9.47803745037 0.577911
9.97688410514 0.604706
10.475731018 0.628509
10.9745781888 0.647598
11.4734256178 0.67549
11.9722733049 0.714712
12.4711212502 0.760152
12.9699694537 0.796274
13.4688179153 0.794965
13.9676666352 0.730305
14.4665156134 0.608582
14.9653648499 0.494397
15.4642143447 0.405789
15.9630640979 0.35957
16.4619141094 0.357593
16.9607643794 0.340623
17.4596149078 0.333191
17.9584656947 0.388598
18.45731674 0.403067
18.9561680439 0.403317
19.4550196064 0.412185
19.9538714274 0.440693
20.4527235071 0.461321
20.9515758454 0.469448
21.4504284423 0.475123
21.949281298 0.52621
22.4481344124 0.611601
22.9469877855 0.684873
23.4458414174 0.784163
23.9446953081 0.915971
24.4435494577 1.04056
24.9424038661 1.18266
