-24.9652344036 0.47376
-24.4659350677 0.451894
-23.9666355136 0.431504
-23.4673357414 0.403943
-22.9680357509 0.356647
-22.4687355421 0.309308
-21.9694351152 0.284758
-21.4701344699 0.277489
-20.9708336064 0.275514
-20.4715325246 0.255125
-19.9722312244 0.262191
-19.4729297059 0.323664
-18.9736279691 0.382714
-18.4743260139 0.432721
-17.9750238403 0.487852
-17.4757214483 0.459491
-16.9764188379 0.422282
-16.4771160091 0.393405
-15.9778129618 0.382555
-15.478509696 0.427185
-14.9792062117 0.495804
-14.4799025089 0.516505
-13.9805985876 0.539834
-13.4812944478 0.563223
-12.9819900894 0.588667
-12.4826855124 0.625079
-11.9833807168 0.642884
-11.4840757026 0.641393
-10.9847704698 0.631397
-10.4854650183 0.594656
-9.98615934819 0.552795
-9.48685345939 0.540502
-8.98754735188 0.535113
-8.48824102566 0.526838
-7.98893448071 0.524526
-7.48962771701 0.52445
-6.99032073455 0.51417
-6.4910135333 0.517605
-5.99170611325 0.488744
-5.49239847438 0.463089
-4.99309061668 0.461974
-4.49378254013 0.446461
-3.99447424471 0.400881
-3.4951657304 0.361986
-2.99585699719 0.348344
-2.49654804506 0.348476
-1.99723887399 0.31668
-1.49792948397 0.227865
-0.998619874973 0.16264
-0.499310046989 0.117236
0 0.0522838
0.499310266013 0.029298
0.998620751064 0.0287432
1.49793145517 0.0326755
1.99724237836 0.0401801
2.49655352063 0.044194
2.99586488202 0.0499554
3.49517646252 0.0543105
3.99448826217 0.0431087
4.49380028098 0.0164663
4.99311251897 0
5.49242497615 0.0490917
5.99173765254 0.123085
6.49105054816 0.19896
6.99036366302 0.278032
7.48967699715 0.366674
7.98899055055 0.421619
8.48830432325 0.478101
8.98761831526 0.502164
9.4869325266 0.491836
9.98624695729 0.487502
10.4855616073 0.480234
10.9848764768 0.492758
11.4841915656 0.494416
11.9835068738 0.497077
12.4828224015 0.508046
12.9821381486 0.521006
13.4814541152 0.565904
13.9807703013 0.623311
14.4800867069 0.683083
14.979403332 0.735355
15.4787201766 0.784136
15.9780372408 0.813804
16.4773545245 0.826291
16.9766720278 0.834814
17.4759897507 0.816346
17.9753076933 0.770297
18.4746258555 0.729017
18.9739442373 0.737985
19.4732628388 0.715331
19.97258166 0.666739
20.4719007008 0.660193
20.9712199614 0.720432
21.4705394418 0.840579
21.9698591419 0.955118
22.4691790617 0.994812
22.9684992014 0.964094
23.4678195608 0.927265
23.9671401401 0.912495
24.4664609392 0.930598
24.9657819581 0.95711
