-24.9313787036 0.316532
-24.4327578948 0.31875
-23.9341368105 0.316747
-23.4355154506 0.313047
-22.936893815 0.294073
-22.4382719037 0.275408
-21.9396497166 0.277254
-21.4410272538 0.291226
-20.9424045153 0.314563
-20.4437815008 0.306914
-19.9451582105 0.267717
-19.4465346444 0.239023
-18.9479108022 0.224534
-18.4492866841 0.19594
-17.9506622901 0.190288
-17.4520376199 0.191935
-16.9534126737 0.184577
-16.4547874514 0.177528
-15.956161953 0.172859
-15.4575361784 0.169172
-14.9589101276 0.163294
-14.4602838005 0.15574
-13.9616571972 0.153384
-13.4630303176 0.158418
-12.9644031616 0.165351
-12.4657757293 0.174784
-11.9671480205 0.184272
-11.4685200353 0.191555
-10.9698917737 0.2019
-10.4712632355 0.222895
-9.97263442077 0.241412
-9.47400532947 0.238554
-8.97537596156 0.230955
-8.476746317 0.225403
-7.97811639576 0.23381
-7.47948619781 0.242635
-6.98085572312 0.24292
-6.48222497164 0.21732
-5.98359394335 0.179272
-5.4849626382 0.164318
-4.98633105618 0.152916
-4.48769919724 0.151106
-3.98906706135 0.122377
-3.49043464848 0.0651297
-2.99180195859 0.0240808
-2.49316899165 0
-1.99453574763 0.00209182
-1.49590222648 0.0102364
-0.997268428185 0.0187675
-0.498634352703 0.0180801
0 0.0159278
0.498634629955 0.0341349
0.997269537198 0.0614204
1.49590472176 0.0776263
1.99454018368 0.0872993
2.49317592299 0.0739625
2.99181193972 0.0508041
3.4904482339 0.0408541
3.98908480557 0.0356944
4.48772165477 0.0384026
4.98635878152 0.0458201
5.48499618587 0.0604671
5.98363386784 0.112602
6.48227182746 0.189578
6.98091006478 0.278452
7.47954857982 0.35484
7.97818737262 0.401587
8.47682644321 0.442784
8.97546579163 0.453412
9.47410541791 0.429751
9.97274532208 0.40431
10.4713855042 0.373553
10.9700259642 0.350114
11.4686667023 0.366346
11.9673077184 0.404474
12.4659490125 0.436358
12.9645905847 0.467868
13.4632324351 0.492689
13.9618745636 0.509114
14.4605169703 0.513408
14.9591596553 0.510991
15.4578026185 0.506075
15.95644586 0.50104
16.4550893798 0.499141
16.953733178 0.495415
17.4523772546 0.495126
17.9510216097 0.48913
18.4496662431 0.486617
18.9483111551 0.491488
19.4469563456 0.495718
19.9456018147 0.497836
20.4442475624 0.495401
20.9428935887 0.488635
21.4415398936 0.479602
21.9401864773 0.481366
22.4388333397 0.488412
22.9374804809 0.49202
23.4361279008 0.488583
23.9347755996 0.487593
24.4334235773 0.473142
24.9320718338 0.4478
