-24.9320366483 0.746713
-24.4334027209 0.744089
-23.9347685162 0.751227
-23.4361340343 0.749815
-22.9374992751 0.752242
-22.4388642385 0.738288
-21.9402289245 0.734972
-21.4415933331 0.732116
-20.9429574643 0.690921
-20.4443213181 0.653025
-19.9456848943 0.630644
-19.4470481929 0.603209
-18.948411214 0.559704
-18.4497739575 0.530247
-17.9511364234 0.51678
-17.4524986115 0.521823
-16.953860522 0.520601
-16.4552221547 0.498428
-15.9565835096 0.498681
-15.4579445867 0.500333
-14.959305386 0.503423
-14.4606659074 0.504181
-13.9620261509 0.500163
-13.4633861164 0.493246
-12.964745804 0.490819
-12.4661052135 0.481132
-11.9674643451 0.467593
-11.4688231985 0.461287
-10.9701817738 0.456834
-10.4715400709 0.466212
-9.97289808992 0.463359
-9.47425583069 0.428157
-8.97561329321 0.393822
-8.47697047744 0.366264
-7.97832738337 0.334863
-7.47968401094 0.295939
-6.98104036013 0.254534
-6.48239643091 0.213074
-5.98375222324 0.217783
-5.48510773709 0.183902
-4.98646297242 0.126828
-4.4878179292 0.096537
-3.9891726074 0.0692699
-3.49052700698 0.0716411
-2.99188112791 0.0792359
-2.49323497016 0.0797437
-1.9945885337 0.0687303
-1.49594181848 0.0728549
-0.997294824482 0.0730172
-0.498647551666 0.0797668
0 0.0828766
0.49864783055 0.086738
0.997295940016 0.0956284
1.49594432843 0.118836
1.99459299583 0.130455
2.49324194225 0.122359
2.99189116772 0.101983
3.49054067227 0.073655
3.98919045594 0.0618822
4.48784051876 0.068044
4.98649086076 0.0751222
5.48514148198 0.0794622
5.98379238246 0.109823
6.48244356221 0.143344
6.98109502128 0.118452
7.47974675971 0.0653964
7.97839877751 0.0230036
8.47705107474 0
8.97570365141 0.00239543
9.47435650757 0.0107937
9.97300964324 0.0245113
10.4716630585 0.0358585
10.9703167533 0.0759524
11.4689707277 0.153739
11.9676249818 0.252074
12.4662795155 0.354102
12.964934329 0.436544
13.4635894222 0.547315
13.9622447952 0.688386
14.4609004481 0.870653
14.9595563807 1.04049
15.4582125933 1.11119
15.9568690858 1.16693
16.4555258582 1.19451
16.9541829106 1.15871
17.452840243 1.0679
17.9514978555 1.01615
18.450155748 0.966622
18.9488139207 0.857229
19.4474723735 0.739135
19.9461311065 0.678415
20.4447901197 0.6672
20.9434494131 0.685516
21.4421089868 0.698526
21.9407688409 0.690222
22.4394289753 0.691655
22.9380893901 0.712267
23.4367500852 0.749347
23.9354110609 0.745203
24.434072317 0.701234
24.9327338536 0.629303
