-24.9327371734 0.799071
-24.4340891366 0.78675
-23.9354408266 0.803514
-23.4367922433 0.822665
-22.9381433868 0.834536
-22.439494257 0.831637
-21.9408448538 0.812488
-21.4421951772 0.79334
-20.9435452273 0.778795
-20.4448950039 0.787503
-19.946244507 0.800473
-19.4475937366 0.79103
-18.9489426927 0.761665
-18.4502913751 0.737122
-17.951639784 0.71635
-17.4529879193 0.666893
-16.9543357808 0.619597
-16.4556833687 0.586618
-15.9570306828 0.558367
-15.4583777232 0.519607
-14.9597244897 0.485274
-14.4610709824 0.457117
-13.9624172012 0.437048
-13.4637631461 0.413068
-12.9651088171 0.377528
-12.4664542141 0.350666
-11.967799337 0.346923
-11.469144186 0.34285
-10.9704887609 0.328309
-10.4718330616 0.303007
-9.97317708824 0.275699
-9.47452084068 0.209636
-8.97586431892 0.14042
-8.47720752292 0.102033
-7.97855045265 0.0821658
-7.47989310806 0.0769079
-6.98123548914 0.0772671
-6.48257759585 0.076125
-5.98391942815 0.0784637
-5.48526098601 0.0780791
-4.98660226939 0.070217
-4.48794327828 0.0640439
-3.98928401262 0.0638233
-3.49062447239 0.0741609
-2.99196465756 0.0692732
-2.49330456809 0.0466727
-1.99464420394 0.0172277
-1.49598356509 0.00625164
-0.997322651512 0.000962109
-0.498661463158 0.00694326
0 0.00127312
0.498661737993 0
0.997323750857 0.0201768
1.49598603862 0.0360776
1.99464860132 0.0386557
2.49331143899 0.0393768
2.99197455166 0.0451039
3.49063793937 0.0487734
3.98930160215 0.0489681
4.48796554002 0.0523567
4.98662975303 0.0582864
5.4852942412 0.0660563
5.98395900458 0.0726214
6.48262404318 0.0780466
6.98128935706 0.0774316
7.47995494623 0.0727864
7.97862081073 0.095268
8.47728695059 0.16448
8.97595336586 0.29353
9.47462005655 0.424474
9.97328702271 0.519726
10.4719542644 0.632095
10.9706217815 0.7393
11.4692895743 0.868345
11.9679576426 1.01874
12.4666259866 1.19745
12.9652946062 1.28972
13.4639635016 1.32581
13.9626326726 1.33102
14.4613021194 1.37963
14.959971842 1.33546
15.4586418404 1.28404
15.9573121147 1.2217
16.4559826649 1.14078
16.954653491 1.0455
17.453324593 0.969194
17.9519959711 0.915294
18.4506676251 0.869953
18.9493395553 0.834929
19.4480117615 0.851248
19.9466842438 0.88642
20.4453570023 0.937993
20.9440300369 0.955012
21.4427033478 0.892914
21.941376935 0.755127
22.4400507984 0.649849
22.9387249381 0.626829
23.4373993542 0.621271
23.9360740467 0.61193
24.4347490156 0.604989
24.9334242609 0.62366
