-24.9782741221 0.84108
-24.4787133156 0.805887
-23.9791523183 0.728699
-23.4795911303 0.647502
-22.9800297517 0.55982
-22.4804681823 0.611586
-21.9809064223 0.801855
-21.4813444714 0.952368
-20.9817823299 0.975276
-20.4822199976 0.959381
-19.9826574745 0.965088
-19.4830947606 1.03517
-18.983531856 1.08036
-18.4839687606 1.08961
-17.9844054743 1.08198
-17.4848419973 1.06033
-16.9852783294 1.05374
-16.4857144706 1.0457
-15.986150421 1.01092
-15.4865861806 0.918888
-14.9870217493 0.843608
-14.4874571271 0.792432
-13.987892314 0.753134
-13.48832731 0.697359
-12.988762115 0.618657
-12.4891967292 0.56787
-11.9896311524 0.552808
-11.4900653847 0.546236
-10.990499426 0.548598
-10.4909332763 0.542615
-9.99136693564 0.529882
-9.49180040399 0.512091
-8.99223368135 0.486513
-8.49266676769 0.45047
-7.993099663 0.42776
-7.49353236729 0.397688
-6.99396488052 0.383524
-6.4943972027 0.371151
-5.99482933381 0.362161
-5.49526127385 0.361316
-4.99569302279 0.370284
-4.49612458064 0.368434
-3.99655594737 0.352146
-3.49698712299 0.332447
-2.99741810747 0.308891
-2.49784890081 0.29074
-1.99827950299 0.281221
-1.49870991402 0.280102
-0.999140133868 0.271415
-0.499570162532 0.239598
0 0.203277
0.499570353738 0.181356
0.999140898693 0.167857
1.49871163488 0.170984
1.9982825623 0.186597
2.49785368097 0.207322
2.9974249909 0.18929
3.4969964921 0.162283
3.99656818458 0.131379
4.49614006835 0.138519
4.99571214343 0.123666
5.49528440981 0.0929179
5.99485686753 0.0481352
6.49442951657 0.0326024
6.99400235696 0.0186675
7.49357538871 0
7.99314861182 0.00170674
8.49272202631 0.0123061
8.99229563218 0.0152757
9.49186942946 0.0286235
9.99144341814 0.0461284
10.4910175982 0.0653098
10.9905919698 0.058875
11.4901665327 0.0821347
11.9897412872 0.102763
12.489316233 0.108793
12.9888913704 0.145843
13.4884666992 0.180875
13.9880422196 0.209313
14.4876179314 0.283613
14.9871938347 0.281161
15.4867699296 0.409909
15.986346216 0.5392
16.4859226939 0.612396
16.9854993635 0.640742
17.4850762245 0.680967
17.9846532772 0.779214
18.4842305214 0.849728
18.9838079572 0.929095
19.4833855847 0.967451
19.9829634038 0.979189
20.4825414144 1.00909
20.9821196168 1.01024
21.4816980108 1.05646
21.9812765964 1.08452
22.4808553737 1.06646
22.9804343427 1.06886
23.4800135034 1.08586
23.9795928558 1.09635
24.4791723999 1.10963
24.9787521357 1.12781
