-24.9652837178 0.753561
-24.4659834018 0.696916
-23.9666828674 0.652897
-23.4673821145 0.596174
-22.9680811432 0.550413
-22.4687799533 0.507275
-21.969478545 0.446839
-21.4701769182 0.42509
-20.9708750728 0.388294
-20.4715730089 0.366953
-19.9722707263 0.347141
-19.4729682253 0.328254
-18.9736655056 0.301329
-18.4743625672 0.287628
-17.9750594103 0.261734
-17.4757560346 0.264642
-16.9764524404 0.244077
-16.4771486274 0.236727
-15.9778445957 0.204295
-15.4785403452 0.19879
-14.9792358761 0.193898
-14.4799311882 0.192224
-13.9806262814 0.189253
-13.4813211559 0.184043
-12.9820158116 0.186426
-12.4827102485 0.20025
-11.9834044665 0.191369
-11.4840984656 0.191353
-10.9847922459 0.199761
-10.4854858073 0.20043
-9.98617914972 0.192795
-9.48687227324 0.184672
-8.98756517781 0.180706
-8.4882578634 0.182392
-7.98895033002 0.191454
-7.48964257763 0.186768
-6.99033460623 0.185982
-6.49102641579 0.192795
-5.99171800629 0.178084
-5.49240937773 0.150397
-4.99310053008 0.127427
-4.49379146332 0.112096
-3.99448217744 0.107781
-3.49517267243 0.11066
-2.99586294826 0.0909442
-2.49655300491 0.060186
-1.99724284238 0.0608514
-1.49793246064 0.109146
-0.998621859671 0.096852
-0.499311039464 0.0857521
0 0.0831448
0.49931125874 0.105001
0.998622736772 0.0805577
1.49793443411 0.0400797
1.99724635078 0.0318784
2.49655848679 0.0122408
2.99587084216 0.00131377
3.49518341691 0.000884023
3.99449621106 0.00335826
4.49380922462 0.000860614
4.9931224576 0
5.49243591003 0.00141516
5.99174958192 0.0029492
6.49106347329 0.00132435
6.99037758416 0.000615105
7.48969191455 0.00147451
7.98900646446 0.00261651
8.48832123392 0.00617614
8.98763622295 0.00954531
9.48695143155 0.0133924
9.98626685976 0.0183598
10.4855825076 0.0305988
10.984898375 0.0712375
11.4842144621 0.100259
11.9835307689 0.146676
12.4828472954 0.216565
12.9821640415 0.320047
13.4814810074 0.419096
13.980798193 0.499241
14.4801155983 0.560029
14.9794332235 0.619571
15.4787510684 0.677214
15.9780691331 0.679785
16.4773874176 0.733488
16.976705922 0.692786
17.4760246462 0.55894
17.9753435903 0.419707
18.4746627542 0.307574
18.9739821381 0.229914
19.4733017419 0.204634
19.9726215656 0.114987
20.4719416093 0.081601
20.971261873 0.0476526
21.4705823566 0.0721248
21.9699030603 0.264371
22.4692239839 0.43434
22.9685451276 0.513928
23.4678664914 0.492886
23.9671880752 0.344604
24.4665098791 0.276869
24.9658319032 0.293257
