-24.9418089528 1.27541
-24.442979066 1.26611
-23.9441489227 1.26015
-23.4453185231 1.25045
-22.9464878671 1.22399
-22.4476569546 1.19382
-21.9488257856 1.15829
-21.4499943601 1.05932
-20.9511626781 0.970499
-20.4523307395 0.896595
-19.9534985443 0.817272
-19.4546660926 0.759221
-18.9558333841 0.701188
-18.457000419 0.654533
-17.9581671971 0.619961
-17.4593337186 0.599524
-16.9604999832 0.593663
-16.4616659911 0.576699
-15.9628317421 0.562018
-15.4639972363 0.555103
-14.9651624736 0.559698
-14.466327454 0.53881
-13.9674921775 0.514464
-13.4686566439 0.504262
-12.9698208534 0.531278
-12.4709848059 0.561908
-11.9721485013 0.542233
-11.4733119396 0.496738
-10.9744751208 0.454059
-10.4756380449 0.428499
-9.9768007118 0.402899
-9.47796312151 0.389057
-8.97912527398 0.374261
-8.4802871692 0.363795
-7.98144880714 0.353143
-7.48261018776 0.323892
-6.98377131104 0.311064
-6.48493217695 0.284815
-5.98609278546 0.233335
-5.48725313654 0.194917
-4.98841323016 0.209672
-4.4895730663 0.221587
-3.99073264493 0.21693
-3.49189196601 0.175022
-2.99305102953 0.119584
-2.49420983544 0.0787707
-1.99536838372 0.0343117
-1.49652667435 0.0342237
-0.99768470729 0.0249452
-0.498842482516 0.0203738
0 0.0378763
0.498842740288 0.0692975
0.997685738376 0.0849175
1.49652899429 0.0786726
1.99537250807 0.0619661
2.49421627973 0.0391788
2.9930603093 0.0134157
3.49190459682 0
3.99074914231 0.00270084
4.4895939458 0.0350532
4.98843900732 0.0874949
5.4872843269 0.140563
5.98612990456 0.226073
6.48497574033 0.234776
6.98382183425 0.26937
7.48266818634 0.319937
7.98151479664 0.379046
8.48036166515 0.371407
8.97920879193 0.377766
9.47805617699 0.378374
9.97690382037 0.376464
10.4757517221 0.374735
10.9745998822 0.375881
11.4734483007 0.37055
11.9722969776 0.372337
12.4711459129 0.377995
12.9699951068 0.403138
13.4688445592 0.424755
13.9676942701 0.438434
14.4665442396 0.458581
14.9653944676 0.504969
15.4642449543 0.555762
15.9630956997 0.597903
16.4619467038 0.670288
16.9607979665 0.795256
17.459649488 0.890797
17.9585012683 0.943956
18.4573533073 0.936657
18.9562056052 0.932891
19.455058162 0.965164
19.9539109776 1.04788
20.4527640521 1.11918
20.9516173856 1.1415
21.450470978 1.13252
21.9493248295 1.11426
22.4481789399 1.13422
22.9470333095 1.13144
23.445887938 0.963265
23.9447428258 0.817018
24.4435979726 0.740897
24.9424533786 0.671455
