-24.9782539043 0.96316
-24.4786934999 0.991372
-23.9791329048 1.0181
-23.4795721192 0.994277
-22.9800111429 0.924856
-22.480449976 0.81985
-21.9808886185 0.733576
-21.4813270704 0.708807
-20.9817653316 0.75777
-20.4822034022 0.881483
-19.982641282 1.0365
-19.4830789712 1.1309
-18.9835164697 1.05722
-18.4839537775 1.01015
-17.9843908945 0.987064
-17.4848278209 0.932375
-16.9852645565 0.850716
-16.4857011013 0.757082
-15.9861374554 0.692799
-15.4865736187 0.64795
-14.9870095913 0.644732
-14.487445373 0.616914
-13.9878809639 0.600194
-13.4883163641 0.601107
-12.9887515734 0.599179
-12.4891865918 0.582664
-11.9896214194 0.570219
-11.4900560562 0.549995
-10.9904905021 0.524769
-10.4909247571 0.48218
-9.9913588212 0.437966
-9.49179269442 0.399149
-8.99222637672 0.375882
-8.4926598681 0.351593
-7.99309316855 0.327633
-7.49352627805 0.318377
-6.9939591966 0.297827
-6.49439192418 0.290085
-5.99482446079 0.281891
-5.49525680641 0.27462
-4.99568896103 0.270856
-4.49612092464 0.26615
-3.99655269724 0.26391
-3.4969842788 0.259565
-2.99741566932 0.258575
-2.49784686879 0.255992
-1.9982778772 0.273959
-1.49870869454 0.267157
-0.999139320789 0.259993
-0.499569755947 0.255383
0 0.229841
0.499569947063 0.181629
0.99914008525 0.206241
1.49871041458 0.246108
1.99828093505 0.275405
2.49785164668 0.333662
2.99742254948 0.34615
3.49699364346 0.27942
3.99656492863 0.238848
4.496136405 0.222756
4.99570807259 0.185872
5.49527993139 0.135553
5.99485198143 0.0856724
6.49442422271 0.0443423
6.99399665525 0.0160567
7.49356927905 0
7.99314209412 0.000451972
8.49271510049 0.0141605
8.99228829814 0.0234049
9.49186168711 0.0425617
9.99143526739 0.0591648
10.491009039 0.0618435
10.990583002 0.0568182
11.4901571563 0.0545963
11.9897315019 0.055711
12.4893060389 0.0506301
12.9888807674 0.0865972
13.4884556872 0.116004
13.9880307984 0.145667
14.487606101 0.222506
14.987181595 0.314728
15.4867572805 0.387819
15.9863331574 0.430546
16.4859092258 0.500246
16.9854854856 0.63488
17.4850619369 0.792558
17.9846385797 0.93538
18.484215414 0.95636
18.9837924398 0.977559
19.4833696572 0.99587
19.982947066 0.992886
20.4825246664 0.963874
20.9821024584 0.923357
21.4816804419 0.907791
21.9812586169 0.90605
22.4808369836 0.90492
22.9804155418 0.900393
23.4799942917 0.902438
23.9795732331 0.935258
24.4791523662 0.965987
24.9787316909 1.07591
