-24.9751067845 0.585182
-24.4756095368 0.618453
-23.9761120898 0.616648
-23.4766144435 0.596739
-22.9771165978 0.589104
-22.4776185528 0.579453
-21.9781203084 0.560809
-21.4786218647 0.561994
-20.9791232216 0.58024
-20.479624379 0.58346
-19.9801253371 0.57826
-19.4806260958 0.570261
-18.981126655 0.56696
-18.4816270147 0.566326
-17.982127175 0.56409
-17.4826271358 0.551327
-16.9831268971 0.552211
-16.483626459 0.568171
-15.9841258213 0.584539
-15.4846249841 0.617093
-14.9851239474 0.682165
-14.4856227111 0.723451
-13.9861212752 0.743817
-13.4866196398 0.778738
-12.9871178048 0.834185
-12.4876157702 0.816743
-11.988113536 0.756794
-11.4886111022 0.703958
-10.9891084687 0.677926
-10.4896056356 0.656035
-9.99010260282 0.65178
-9.49059937038 0.610494
-8.99109593825 0.490726
-8.49159230643 0.369352
-7.9920884749 0.258697
-7.49258444364 0.205264
-6.99308021266 0.159742
-6.49357578193 0.0874833
-5.99407115144 0.0352639
-5.49456632118 0.0237658
-4.99506129114 0.0204628
-4.4955560613 0.0190975
-3.99605063166 0.0456972
-3.4965450022 0.0730579
-2.9970391729 0.0734767
-2.49753314377 0.0564772
-1.99802691477 0.0262028
-1.49852048591 0
-0.999013857172 0.00584839
-0.499507028538 0.0205921
0 0.034229
0.499507228456 0.0180933
0.99901465684 0.00750059
1.49852228517 0.00727046
1.99803011345 0.00953335
2.49753814169 0.00631284
2.99704636992 0.000357708
3.49655479813 0.00547223
3.99606342635 0.00946454
4.49557225458 0.0407654
4.99508128284 0.0854257
5.49459051114 0.149206
5.99409993949 0.190445
6.4936095679 0.220992
6.99311939639 0.250555
7.49262942497 0.26556
7.99213965364 0.23516
8.49165008243 0.141008
8.99116071134 0.0707083
9.49067154039 0.0429274
9.99018256959 0.0351204
10.4896937989 0.0329939
10.9892052285 0.042235
11.4887168582 0.0452906
11.9882286881 0.0456135
12.4877407182 0.0450512
12.9872529486 0.0418185
13.4867653792 0.0425423
13.98627801 0.0518027
14.4857908411 0.055601
14.9853038724 0.0610612
15.484817104 0.0697692
15.984330536 0.0584774
16.4838441682 0.0818203
16.9833580007 0.19235
17.4828720336 0.3103
17.9823862668 0.389711
18.4819007004 0.445518
18.9814153344 0.504784
19.4809301687 0.569056
19.9804452034 0.601155
20.4799604385 0.597812
20.979475874 0.571927
21.47899151 0.555481
21.9785073464 0.549661
22.4780233832 0.534237
22.9775396205 0.528671
23.4770560583 0.532156
23.9765726966 0.548612
24.4760895353 0.560678
24.9756065746 0.57122
