-24.9782134845 1.22694
-24.478653884 1.2236
-23.979094093 1.1969
-23.4795341117 1.17011
-22.9799739399 1.13366
-22.4804135777 1.10418
-21.9808530251 1.07728
-21.4812922819 1.04658
-20.9817313484 1.04906
-20.4821702243 1.06458
-19.9826089097 1.04956
-19.4830474047 1.03873
-18.9834857091 1.01034
-18.483923823 1.00142
-17.9843617464 0.979975
-17.4847994792 0.961409
-16.9852370215 0.917194
-16.4856743732 0.843665
-15.9861115343 0.791513
-15.4865485048 0.765895
-14.9869852847 0.733005
-14.4874218741 0.711266
-13.9878582728 0.718078
-13.4882944808 0.711844
-12.9887304982 0.694422
-12.489166325 0.638031
-11.9896019611 0.566341
-11.4900374065 0.515926
-10.9904726613 0.48147
-10.4909077253 0.455993
-9.99134259866 0.413448
-9.49177728127 0.372228
-8.99221177316 0.344167
-8.4926460743 0.32152
-7.9930801847 0.283266
-7.49351410433 0.273854
-6.99394783318 0.275254
-6.49438137126 0.283521
-5.99481471854 0.28054
-5.49524787501 0.26674
-4.99568084067 0.275813
-4.4961136155 0.278746
-3.99654619949 0.270428
-3.49697859264 0.254875
-2.99741079492 0.225681
-2.49784280634 0.190122
-1.99827462688 0.162198
-1.49870625652 0.143487
-0.999137695263 0.1352
-0.499568943094 0.107616
0 0.0618041
0.499569134027 0.0394051
0.999138458999 0.0366217
1.49870797493 0.021858
1.99827768182 0.0137057
2.49784757969 0.0118718
2.99741766855 0.0113626
3.4969879484 0.0162983
3.99655841927 0.0128673
4.49612908115 0.00905708
4.99569993407 0.0108967
5.49527097802 0.00832241
5.99484221303 0.0039015
6.49441363909 0.00491085
6.99398525624 0.0106381
7.49355706446 0
7.99312906378 0.0252174
8.4927012542 0.0653571
8.99227363574 0.114783
9.4918462084 0.185191
9.9914189722 0.28619
10.4909919272 0.389589
10.9905650733 0.457243
11.4901384105 0.52009
11.989711939 0.603056
12.4892856586 0.688993
12.9888595695 0.780284
13.4884336715 0.853734
13.9880079648 0.898514
14.4875824493 0.958702
14.987157125 1.01317
15.486731992 1.04254
15.9863070503 1.08721
16.4858822998 1.13878
16.9854577407 1.17259
17.4850333728 1.17851
17.9846091962 1.20552
18.484185211 1.25721
18.983761417 1.24285
19.4833378144 1.24442
19.9829144032 1.24838
20.4824911833 1.24132
20.9820681548 1.23621
21.4816453176 1.27404
21.9812226719 1.30095
22.4808002175 1.29915
22.9803779546 1.29629
23.479955883 1.27726
23.979534003 1.31566
24.4791123143 1.37884
24.9786908171 1.43441
