-24.9306205289 2.34384
-24.4320148409 2.346
-23.9334088791 2.32638
-23.4348026434 2.32836
-22.9361961338 2.31082
-22.4375893502 2.28799
-21.9389822927 2.294
-21.4403749611 2.28563
-20.9417673555 2.26841
-20.4431594758 2.24008
-19.944551322 2.17327
-19.445942894 2.11428
-18.9473341919 2.05138
-18.4487252155 1.99058
-17.9501159649 1.94894
-17.45150644 1.92021
-16.9528966408 1.89883
-16.4542865672 1.88521
-15.9556762192 1.89826
-15.4570655968 1.93881
-14.9584546999 1.94069
-14.4598435286 1.91018
-13.9612320827 1.85845
-13.4626203622 1.79163
-12.9640083672 1.73742
-12.4653960975 1.65704
-11.9667835531 1.57676
-11.4681707341 1.50172
-10.9695576403 1.49776
-10.4709442718 1.47647
-9.9723306284 1.45063
-9.47371671021 1.39616
-8.97510251715 1.34511
-8.47648804918 1.30906
-7.97787330626 1.29583
-7.47925828838 1.26971
-6.98064299549 1.23763
-6.48202742755 1.17046
-5.98341158454 1.16902
-5.48479546642 1.18735
-4.98617907316 1.17511
-4.48756240471 1.15441
-3.98894546105 1.1143
-3.49032824214 1.06866
-2.99171074795 1.04863
-2.49309297845 1.04763
-1.9944749336 1.03183
-1.49585661336 1.00601
-0.997238017703 0.96134
-0.498619146594 0.910203
0 0.866202
0.498619422115 0.817911
0.997239119784 0.762398
1.49585909304 0.711385
1.99447934192 0.68861
2.49309986646 0.688636
2.99172066669 0.690187
3.49034174264 0.669115
3.98896309435 0.661693
4.48758472186 0.666025
4.98620662519 0.665292
5.48482880438 0.670497
5.98345125947 0.695891
6.48207399048 0.667641
6.98069699746 0.662614
7.47932028044 0.680665
7.97794383945 0.709744
8.47656767452 0.841416
8.97519178569 0.944002
9.47381617299 0.981135
9.97244083646 0.965856
10.4710657761 0.924303
10.969690992 0.947422
11.4683164842 1.01274
11.9669422527 1.06665
12.4655682975 1.12085
12.9641946187 1.13683
13.4628212163 1.14166
13.9614480903 1.1249
14.4600752408 0.909153
14.9587026678 0.460176
15.4573303714 0.145911
15.9559583515 0
16.4545866082 0.0371477
16.9532151416 0.157589
17.4518439516 0.290582
17.9504730384 0.43908
18.4491024019 0.549374
18.9477320422 0.613507
19.4463619592 0.662258
19.9449921532 0.791973
20.443622624 0.943161
20.9422533717 1.06251
21.4408843964 1.25029
21.939515698 1.53571
22.4381472767 1.75863
22.9367791324 1.84163
23.4354112652 1.87284
23.9340436751 1.88
24.4326763622 1.92951
24.9313093264 1.84165
