-24.9313766058 0.925762
-24.4327558387 0.942201
-23.934134796 0.955311
-23.4355134777 0.9839
-22.9368918837 1.00753
-22.4382700141 1.01558
-21.9396478688 0.991394
-21.4410254477 0.970782
-20.9424027508 1.00656
-20.4437797781 1.03976
-19.9451565296 1.04955
-19.4465330051 1.04621
-18.9479092048 1.01337
-18.4492851285 1.00785
-17.9506607762 0.997567
-17.4520361479 0.983263
-16.9534112435 0.945881
-16.4547860631 0.90487
-15.9561606065 0.868209
-15.4575348737 0.845035
-14.9589088648 0.814555
-14.4602825797 0.78977
-13.9616560183 0.74153
-13.4630291805 0.712866
-12.9644020665 0.702074
-12.4657746761 0.682335
-11.9671470093 0.649423
-11.4685190661 0.614153
-10.9698908464 0.577956
-10.4712623503 0.560651
-9.97263357756 0.542323
-9.47400452828 0.503336
-8.97537520242 0.45999
-8.47674559992 0.413814
-7.97811572075 0.397847
-7.47948556489 0.363037
-6.98085513229 0.279106
-6.48222442293 0.186129
-5.98359343676 0.0928103
-5.48496217376 0.0463185
-4.98633063389 0.0521489
-4.48769881712 0.0548428
-3.98906672341 0.0478346
-3.49043435273 0.0467873
-2.99180170505 0.0448905
-2.49316878034 0.0446659
-1.99453557855 0.0388934
-1.49590209965 0.0335714
-0.997268343618 0.0281005
-0.498634310412 0.0201563
0 0.00406645
0.498634587651 0.0103899
0.997269452577 0.0283554
1.49590459481 0.0582815
1.99454001438 0.0853739
2.49317571133 0.10108
2.99181168569 0.0966943
3.49044793749 0.101302
3.98908446676 0.105354
4.48772127354 0.0935494
4.98635835787 0.105902
5.48499571977 0.115961
5.98363335929 0.117441
6.48227127645 0.113839
6.98090947128 0.107184
7.47954794383 0.0901951
7.97818669412 0.082526
8.47682572219 0.0822945
8.97546502808 0.0813011
9.47410461181 0.0823463
9.97274447341 0.0886036
10.4713846129 0.0844153
10.9700250304 0.0634339
11.4686657259 0.0347062
11.9673066993 0.018748
12.4659479508 0.00464918
12.9645894804 0
13.4632312881 0.00497189
13.961873374 0.011571
14.460515738 0.0145538
14.9591583802 0.0176658
15.4578013007 0.0250916
15.9564444995 0.0358873
16.4550879766 0.0382762
16.9537317321 0.0603958
17.4523757659 0.146062
17.9510200781 0.366238
18.4496646688 0.600709
18.948309538 0.745331
19.4469546857 0.793721
19.9456001119 0.768662
20.4442458168 0.767368
20.9428918002 0.792294
21.4415380623 0.784967
21.9401846031 0.770039
22.4388314226 0.718522
22.9374785208 0.61671
23.4361258978 0.529289
23.9347735537 0.458969
24.4334214884 0.405221
24.9320697019 0.38361
