-24.9781528946 1.34161
-24.4785944992 1.32832
-23.9790359136 1.29075
-23.4794771379 1.25306
-22.9799181721 1.21505
-22.4803590161 1.18015
-21.9807996699 1.15501
-21.4812401335 1.1071
-20.9816804069 1.06752
-20.4821204902 1.02561
-19.9825603832 0.981449
-19.4830000859 0.941261
-18.9834395985 0.912245
-18.4838789207 0.885608
-17.9843180528 0.85551
-17.4847569945 0.810767
-16.985195746 0.791134
-16.4856343072 0.765326
-15.986072678 0.734753
-15.4865108586 0.72202
-14.9869488488 0.746405
-14.4873866487 0.782491
-13.9878242582 0.786753
-13.4882616774 0.774629
-12.9886989062 0.771612
-12.4891359447 0.77116
-11.9895727927 0.775221
-11.4900094504 0.775435
-10.9904459176 0.771743
-10.4908821944 0.760153
-9.99131828074 0.741421
-9.49175417666 0.722827
-8.99218988212 0.688855
-8.49262539711 0.63061
-7.99306072162 0.560818
-7.49349585565 0.507939
-6.99393079918 0.454411
-6.49436555219 0.356175
-5.99480011468 0.231805
-5.49523448665 0.128257
-4.99566866806 0.0555052
-4.49610265893 0.0139671
-3.99653645923 0.0110904
-3.49697006895 0.0169169
-2.99740348809 0.013195
-2.49783671663 0.00371385
-1.99826975456 0
-1.49870260188 0.00108222
-0.99913525856 0.000702586
-0.499567724605 0.0110525
0 0.0428444
0.499567915267 0.0566402
0.999136021207 0.0605383
1.49870431783 0.0845583
1.99827280514 0.0691611
2.49784148316 0.0645147
2.9974103519 0.0689071
3.49697941136 0.0596947
3.99654866156 0.0805796
4.4961181025 0.0703691
4.99568773421 0.06407
5.49525755668 0.0932248
5.99482756993 0.112797
6.49439777397 0.121705
6.99396816881 0.105373
7.49353875446 0.0666541
7.99310953093 0.0411891
8.49268049824 0.0532369
8.99225165639 0.0857095
9.49182300539 0.116736
9.99139454526 0.155876
10.490966276 0.154183
10.9905381976 0.154318
11.4901103102 0.206736
11.9896826136 0.265744
12.4892551079 0.311101
12.9888277932 0.341611
13.4884006694 0.343101
13.9879737366 0.382028
14.4875469947 0.486516
14.9871204438 0.539397
15.4866940839 0.560377
15.986267915 0.555042
16.485841937 0.549924
16.9854161501 0.548305
17.4849905542 0.548261
17.9845651494 0.545611
18.4841399356 0.538575
18.9837149128 0.541594
19.4832900811 0.555134
19.9828654405 0.536433
20.482440991 0.543004
20.9820167325 0.588008
21.4815926652 0.670305
21.981168789 0.731562
22.4807451039 0.781719
22.98032161 0.814096
23.4798983072 0.794079
23.9794751956 0.776929
24.4790522751 0.773904
24.9786295458 0.729472
