-24.9417894536 1.45706
-24.4429599538 1.43352
-23.9441301977 1.40628
-23.4453001854 1.36671
-22.9464699167 1.29897
-22.4476393918 1.22237
-21.9488086104 1.19574
-21.4499775727 1.16753
-20.9511462786 1.14878
-20.452314728 1.14751
-19.953482921 1.12769
-19.4546508574 1.0822
-18.9558185373 1.03204
-18.4569859607 1.01175
-17.9581531275 1.00134
-17.4593200376 0.982997
-16.9604866911 0.955214
-16.4616530879 0.943002
-15.9628192281 0.914265
-15.4639851114 0.869993
-14.9651507381 0.833995
-14.4663161079 0.807168
-13.9674812209 0.792857
-13.4686460771 0.796027
-12.9698106764 0.803062
-12.4709750188 0.786753
-11.9721391042 0.748074
-11.4733029327 0.719382
-10.9744665042 0.695165
-10.4756298187 0.681614
-9.97679287611 0.676982
-9.47795567646 0.654481
-8.9791182197 0.623472
-8.4802805058 0.613363
-7.98144253474 0.629815
-7.48260430649 0.660533
-6.98376582102 0.687234
-6.48492707829 0.690374
-5.98608807829 0.632359
-5.48724882097 0.559996
-4.98840930632 0.521135
-4.48956953431 0.492335
-3.9907295049 0.443056
-3.49188921807 0.40943
-2.99304867378 0.400848
-2.49420787202 0.41763
-1.99536681275 0.43316
-1.49652549594 0.427389
-0.997683921563 0.415793
-0.498842089593 0.395412
0 0.323735
0.498842347244 0.244621
0.99768495217 0.161825
1.4965278148 0.0829864
1.99537093518 0.0425463
2.49421431331 0.0212557
2.99305794925 0
3.491901843 0.0142132
3.99074599461 0.0365041
4.4895904041 0.0435189
4.9884350715 0.0400657
5.48727999683 0.0254928
5.98612518013 0.0297014
6.48497062143 0.160941
6.98381632075 0.353371
7.48266227812 0.492831
7.98150849357 0.585612
8.48035496713 0.660922
8.97920169883 0.718073
9.47804868869 0.75459
9.97689593675 0.731127
10.475743443 0.718477
10.9745912076 0.70563
11.4734392304 0.680528
11.9722875115 0.648838
12.4711360509 0.5903
12.9699848488 0.515021
13.468833905 0.545711
13.9676832196 0.578139
14.4665327927 0.459262
14.9653826243 0.383683
15.4642327143 0.372323
15.9630830629 0.36495
16.4619336701 0.376824
16.9607845359 0.428247
17.4596356603 0.472857
17.9584870433 0.458969
18.457338685 0.409746
18.9561905854 0.377878
19.4550427446 0.398328
19.9538951625 0.406983
20.4527478392 0.406356
20.9516007747 0.415105
21.4504539691 0.444266
21.9493074224 0.436214
22.4481611345 0.383517
22.9470151056 0.333416
23.4458693356 0.29002
23.9447238247 0.271095
24.4435785727 0.258168
24.9424335798 0.261089
