-24.9320394678 0.849853
-24.4334054844 0.8485
-23.9347712238 0.857123
-23.4361366858 0.887564
-22.9375018706 0.895344
-22.438866778 0.879818
-21.940231408 0.839861
-21.4415957606 0.783308
-20.9429598357 0.745183
-20.4443236334 0.702278
-19.9456871535 0.677169
-19.447050396 0.660115
-18.948413361 0.63754
-18.4497760483 0.631049
-17.9511384579 0.617314
-17.4525005899 0.598916
-16.9538624441 0.581786
-16.4552240206 0.578281
-15.9565853193 0.566307
-15.4579463401 0.542704
-14.9593070831 0.523139
-14.4606675482 0.525888
-13.9620277354 0.535455
-13.4633876446 0.56798
-12.9647472758 0.594749
-12.4661066289 0.614792
-11.967465704 0.631163
-11.4688245011 0.585954
-10.9701830199 0.526948
-10.4715412606 0.448254
-9.97289922315 0.383006
-9.47425690743 0.331653
-8.97561431344 0.263036
-8.47697144115 0.198425
-7.97832829053 0.183456
-7.47968486154 0.168727
-6.98104115415 0.119346
-6.48239716833 0.0906527
-5.98375290405 0.112202
-5.48510836126 0.0526454
-4.98646353994 0.0136911
-4.48781844005 0.0141088
-3.98917306156 0.00950035
-3.49052740444 0
-2.99188146864 0.00523939
-2.49323525415 0.0184899
-1.99458876092 0.00860727
-1.49594198893 0.0329248
-0.997294938131 0.0850808
-0.4986476085 0.184887
0 0.260607
0.498647887402 0.259967
0.997296053738 0.251336
1.49594449904 0.250364
1.99459322335 0.227067
2.49324222669 0.183141
2.9918915091 0.178833
3.49054107062 0.20035
3.98919091126 0.207739
4.48784103108 0.185294
4.9864914301 0.180019
5.48514210835 0.162714
5.98379306588 0.142063
6.4824443027 0.153031
6.98109581886 0.262267
7.47974761439 0.361545
7.97839968932 0.400159
8.47705204368 0.386046
8.97570467752 0.433703
9.47435759085 0.561653
9.97301078372 0.6174
10.4716642562 0.65705
10.9703180082 0.687823
11.4689720399 0.655222
11.9676263512 0.734575
12.4662809423 0.818379
12.964935813 0.896068
13.4635909636 0.925781
13.9622463939 0.955679
14.4609021041 0.99344
14.9595580942 1.00802
15.4582143641 1.01356
15.956870914 1.05242
16.4555277439 1.09319
16.9541848537 1.11537
17.4528422436 1.14228
17.9514999135 1.17891
18.4501578636 1.16878
18.9488160938 1.11827
19.4474746041 1.06616
19.9461333947 1.03122
20.4447924655 0.987646
20.9434518165 0.940949
21.4421114478 0.877025
21.9407713595 0.819768
22.4394315516 0.775847
22.938092024 0.716792
23.4367527769 0.664672
23.9354138102 0.630999
24.434075124 0.612068
24.9327367184 0.645868
