-24.975069162 0.613918
-24.4755726625 0.62144
-23.9760759638 0.637657
-23.476579066 0.652697
-22.977081969 0.651559
-22.4775846729 0.647929
-21.9780871775 0.645373
-21.478589483 0.635391
-20.9790915893 0.658616
-20.4795934963 0.724437
-19.9800952041 0.745721
-19.4805967127 0.770311
-18.9810980219 0.808984
-18.481599132 0.775881
-17.9821000427 0.761317
-17.4826007541 0.755144
-16.9831012662 0.717162
-16.483601579 0.667456
-15.9841016925 0.617686
-15.4846016066 0.547523
-14.9851013214 0.501235
-14.4856008367 0.496679
-13.9861001527 0.5068
-13.4865992693 0.498953
-12.9870981865 0.478023
-12.4875969043 0.335906
-11.9880954226 0.218948
-11.4885937415 0.153747
-10.9890918609 0.0914375
-10.4895897809 0.0409552
-9.99008750134 0.0139522
-9.49058502231 0
-8.99108234377 0.0129838
-8.49157946572 0.0337573
-7.99207638812 0.0598161
-7.49257311098 0.102984
-6.99306963428 0.112664
-6.49356595801 0.126549
-5.99406208216 0.129425
-5.49455800672 0.12455
-4.99505373166 0.117818
-4.49554925699 0.135099
-3.99604458268 0.203604
-3.49653970873 0.293925
-2.99703463512 0.332055
-2.49752936185 0.269685
-1.99802388889 0.235283
-1.49851821624 0.222709
-0.999012343881 0.232889
-0.499506271806 0.238846
0 0.245617
0.499506471548 0.23268
0.99901314285 0.206369
1.49852001392 0.199327
1.99802708477 0.195365
2.49753435541 0.176463
2.99704182585 0.166362
3.49654949611 0.167033
3.9960573662 0.177481
4.49556543613 0.192129
4.99507370591 0.201395
5.49458217556 0.176045
5.99409084508 0.160638
6.49359971449 0.154104
6.99310878381 0.145044
7.49261805303 0.149157
7.99212752219 0.142271
8.49163719128 0.12909
8.99114706032 0.120318
9.49065712932 0.117337
9.9901673983 0.121869
10.4896778673 0.129446
10.9891885362 0.144025
11.4886994052 0.176583
11.9882104742 0.214254
12.4877217432 0.244377
12.9872332123 0.269093
13.4867448814 0.310494
13.9862567507 0.370362
14.4857688199 0.400648
14.9852810893 0.407767
15.4847935588 0.4403
15.9843062284 0.460106
16.4838190982 0.482501
16.9833321681 0.489897
17.4828454381 0.495973
17.9823589084 0.512666
18.4818725787 0.532154
18.9813864493 0.54718
19.4809005201 0.560091
19.9804147911 0.566595
20.4799292624 0.564784
20.9794439339 0.562352
21.4789588056 0.565878
21.9784738776 0.58901
22.4779891499 0.619426
22.9775046224 0.645531
23.4770202953 0.641316
23.9765361685 0.632233
24.476052242 0.617873
24.9755685158 0.609696
