-24.9320380786 0.477192
-24.4334041228 0.48595
-23.9347698897 0.515575
-23.4361353794 0.497132
-22.9375005917 0.466971
-22.4388655267 0.370532
-21.9402301844 0.309992
-21.4415945646 0.288202
-20.9429586673 0.270863
-20.4443224926 0.260186
-19.9456860403 0.268499
-19.4470493105 0.283955
-18.9484123031 0.302156
-18.4497750181 0.319753
-17.9511374555 0.337426
-17.4524996151 0.351275
-16.9538614971 0.37672
-16.4552231012 0.428746
-15.9565844276 0.465172
-15.4579454762 0.482431
-14.9593062469 0.502044
-14.4606667398 0.525773
-13.9620269547 0.544129
-13.4633868916 0.562503
-12.9647465506 0.574552
-12.4661059316 0.594169
-11.9674650344 0.615025
-11.4688238593 0.644961
-10.9701824059 0.676746
-10.4715406745 0.71726
-9.97289866479 0.739668
-9.4742563769 0.738579
-8.97561381075 0.743975
-8.47697096632 0.755165
-7.97832784356 0.727294
-7.47968444244 0.68007
-6.98104076293 0.620885
-6.48239680499 0.570604
-5.9837525686 0.506588
-5.48510805372 0.430766
-4.98646326031 0.341814
-4.48781818835 0.245779
-3.98917283779 0.1516
-3.4905272086 0.0828596
-2.99188130076 0.0607338
-2.49323511423 0.0753791
-1.99458864897 0.0808513
-1.49594190495 0.0766733
-0.997294882135 0.0761059
-0.498647580497 0.0737595
0 0.0753223
0.49864785939 0.0802553
0.997295997706 0.0868686
1.49594441498 0.0935737
1.99459311125 0.0997517
2.49324208654 0.10505
2.9918913409 0.119046
3.49054087435 0.143583
3.98919068692 0.135385
4.48784077865 0.106981
4.98649114958 0.0897705
5.48514179973 0.0916072
5.98379272914 0.148378
6.48244393785 0.217781
6.98109542588 0.19852
7.47974719327 0.172121
7.97839924006 0.164906
8.47705156627 0.124951
8.97570417194 0.0914565
9.4743570571 0.0899591
9.97301022179 0.079228
10.471663666 0.0710419
10.9703173899 0.039839
11.4689713933 0.00767442
11.9676256765 0
12.4662802393 0.00360399
12.9649350818 0.0109014
13.4635902041 0.0161961
13.9622456062 0.0191734
14.4609012882 0.0118287
14.9595572499 0.0118043
15.4582134916 0.0266546
15.9568700132 0.0312163
16.4555268148 0.0273206
16.9541838963 0.0330001
17.4528412579 0.0404417
17.9514988995 0.0351551
18.4501568212 0.0386512
18.9488150231 0.0382963
19.447473505 0.0433576
19.9461322672 0.0820946
20.4447913096 0.166809
20.9434506323 0.27398
21.4421102353 0.344209
21.9407701186 0.340096
22.4394302822 0.359997
22.9380907262 0.413205
23.4367514507 0.478293
23.9354124556 0.491653
24.434073741 0.471479
24.9327353069 0.42057
