-24.9783752901 1.01433
-24.4788124713 1.06728
-23.9792494614 1.18755
-23.4796862603 1.31017
-22.9801228681 1.3153
-22.4805592847 1.29712
-21.9809955101 1.27791
-21.4814315444 1.25843
-20.9818673874 1.22212
-20.4823030393 1.19644
-19.9827384999 1.19498
-19.4831737693 1.21968
-18.9836088474 1.24063
-18.4840437343 1.1799
-17.9844784299 1.10217
-17.4849129343 0.993089
-16.9853472473 0.867968
-16.4857813691 0.757274
-15.9862152996 0.73057
-15.4866490387 0.725699
-14.9870825865 0.732251
-14.487515943 0.705279
-13.9879491081 0.658648
-13.4883820819 0.598253
-12.9888148643 0.528535
-12.4892474553 0.485988
-11.9896798549 0.43577
-11.4901120631 0.383138
-10.9905440799 0.327395
-10.4909759053 0.257358
-9.99140753924 0.216436
-9.49183898173 0.200855
-8.99227023277 0.207946
-8.49270129234 0.181011
-7.99313216042 0.161547
-7.49356283702 0.131689
-6.99399332212 0.0798217
-6.49442361571 0.0416074
-5.99485371777 0.0160056
-5.49528362831 0.00734973
-4.9957133473 0.00418196
-4.49614287473 0.000863536
-3.99657221061 0
-3.49700135491 0.00597961
-2.99743030762 0.00800816
-2.49785906873 0.00908389
-1.99828763824 0.0117794
-1.49871601614 0.0146025
-0.999144202399 0.0150631
-0.499572197023 0.0147517
0 0.0155918
0.499572388685 0.0166306
0.99914496904 0.0157422
1.49871774108 0.0135064
1.9982907048 0.00300495
2.49786386023 0.0062001
2.99743720738 0.0129738
3.49701074625 0.0178884
3.99658447685 0.0127721
4.49615839919 0.0071667
4.99573251329 0.00517363
5.49530681916 0.015349
5.99488131681 0.0453761
6.49445600624 0.124975
6.99403088747 0.240696
7.4936059605 0.356634
7.99318122536 0.453006
8.49275668204 0.530111
8.99233233057 0.602852
9.49190817095 0.675165
9.99148420318 0.751459
10.4910604273 0.829505
10.9906368433 0.894092
11.4902134512 0.935581
11.9897902509 0.954116
12.4893672426 0.992607
12.9889444263 1.008
13.4885218018 0.963356
13.9880993693 0.852615
14.4876771288 0.771126
14.9872550802 0.711011
15.4868332236 0.670523
15.986411559 0.657602
16.4859900864 0.665254
16.9855688058 0.668321
17.4851477172 0.670346
17.9847268206 0.670329
18.4843061161 0.663387
18.9838856036 0.671334
19.4834652832 0.679872
19.9830451549 0.714752
20.4826252186 0.753746
20.9822054745 0.815734
21.4817859224 0.906408
21.9813665624 1.01283
22.4809473946 1.10138
22.9805284189 1.18956
23.4801096354 1.28367
23.979691044 1.33191
24.4792726447 1.34846
24.9788544377 1.35207
