-24.9652179702 0.408845
-24.4659189609 0.347338
-23.9666197335 0.282468
-23.467320288 0.264287
-22.9680206244 0.25151
-22.4687207426 0.229119
-21.9694206426 0.208579
-21.4701203245 0.199952
-20.9708197881 0.218765
-20.4715190336 0.265143
-19.9722180608 0.341667
-19.4729168698 0.429093
-18.9736154605 0.47854
-18.4743138329 0.532646
-17.975011987 0.626434
-17.4757099228 0.708449
-16.9764076402 0.766576
-16.4771051393 0.764536
-15.9778024201 0.729786
-15.4784994824 0.741014
-14.9791963263 0.730315
-14.4798929518 0.711977
-13.9805893589 0.703509
-13.4812855475 0.693443
-12.9819815177 0.648893
-12.4826772693 0.624029
-11.9833728024 0.577458
-11.484068117 0.546697
-10.9847632131 0.541883
-10.4854580906 0.520379
-9.98615274952 0.494143
-9.48684718985 0.463731
-8.98754141156 0.443236
-8.48823541465 0.448584
-7.98892919908 0.443064
-7.48962276485 0.432884
-6.99031611194 0.440826
-6.49100924033 0.4221
-5.99170215001 0.373945
-5.49239484095 0.334364
-4.99308731314 0.345934
-4.49377956656 0.352016
-3.9944716012 0.35414
-3.49516341703 0.350703
-2.99585501405 0.307632
-2.49654639223 0.260932
-1.99723755156 0.198506
-1.49792849202 0.126952
-0.99861921359 0.0745193
-0.499309716256 0.0442003
0 0.00844118
0.499309935194 0.000579987
0.998620089344 0
1.49793046247 0.0307087
1.99724105458 0.0516255
2.4965518657 0.0882071
2.99586289585 0.16375
3.49517414503 0.201186
3.99448561328 0.223253
4.4937973006 0.207434
4.99310920701 0.192685
5.49242133253 0.176871
5.99173367718 0.166832
6.49104624097 0.185362
6.99035902392 0.262706
7.48967202605 0.314861
7.98898524737 0.369203
8.48829868791 0.428776
8.98761234767 0.477384
9.48692622668 0.545191
9.98624032496 0.597847
10.4855546425 0.662209
10.9848691794 0.695639
11.4841839355 0.698622
11.983498911 0.693969
12.4828141059 0.691692
12.9821295201 0.672962
13.4814451536 0.641969
13.9807610066 0.615458
14.480077079 0.609853
14.9793933709 0.610552
15.4787098821 0.602011
15.9780266129 0.585988
16.4773435631 0.564282
16.9766607329 0.542903
17.4759781221 0.528504
17.9752957309 0.523983
18.4746135592 0.521093
18.9739316071 0.527269
19.4732498746 0.5277
19.9725683617 0.51956
20.4718870684 0.51424
20.9712059947 0.516002
21.4705251407 0.530658
21.9698445064 0.547508
22.4691640917 0.560026
22.9684838968 0.621223
23.4678039215 0.7162
23.967124166 0.813994
24.4664446303 0.893756
24.9657653143 0.966921
