-24.931377136 0.542609
-24.4327563583 0.571275
-23.9341353051 0.61047
-23.4355139763 0.617867
-22.9368923718 0.629884
-22.4382704917 0.629174
-21.9396483358 0.616862
-21.4410259042 0.606711
-20.9424031968 0.634566
-20.4437802135 0.648897
-19.9451569544 0.632065
-19.4465334194 0.610645
-18.9479096085 0.593137
-18.4492855217 0.588379
-17.9506611588 0.627256
-17.4520365199 0.689591
-16.953411605 0.731895
-16.454786414 0.754328
-15.9561609468 0.714427
-15.4575352035 0.691456
-14.958909184 0.695066
-14.4602828882 0.718159
-13.9616563162 0.673396
-13.4630294679 0.662838
-12.9644023433 0.66993
-12.4657749423 0.667025
-11.9671472649 0.63892
-11.4685193111 0.630456
-10.9698910808 0.6344
-10.471262574 0.615969
-9.97263379067 0.593013
-9.47400473078 0.558913
-8.97537539429 0.48908
-8.47674578116 0.425272
-7.97811589136 0.390657
-7.47948572486 0.346014
-6.98085528162 0.283115
-6.48222456161 0.233061
-5.9835935648 0.16507
-5.48496229114 0.123697
-4.98633074062 0.109466
-4.48769891319 0.0704785
-3.98906680882 0.0427041
-3.49043442748 0.0318127
-2.99180176913 0.0316122
-2.49316883374 0.0369526
-1.99453562128 0.0331418
-1.49590213171 0.024788
-0.997268364991 0.00885232
-0.4986343211 0
0 0.00315673
0.498634598344 0.0159881
0.997269473964 0.0346595
1.4959046269 0.0392978
1.99454005717 0.0375163
2.49317576483 0.0303928
2.99181174989 0.0262433
3.4904480124 0.0312857
3.98908455239 0.0364527
4.4877213699 0.0422413
4.98635846495 0.0613345
5.48499583758 0.076272
5.98363348782 0.0831546
6.48227141571 0.0882293
6.98090962129 0.091194
7.47954810457 0.0760957
7.97818686561 0.0710989
8.47682590443 0.0701765
8.97546522106 0.069924
9.47410481554 0.0777163
9.97274468791 0.0977207
10.4713848382 0.124437
10.9700252664 0.153195
11.4686659726 0.15983
11.9673069569 0.139727
12.4659482192 0.121699
12.9645897595 0.124864
13.463231578 0.124803
13.9618736746 0.103309
14.4605160495 0.0845546
14.9591587025 0.0563867
15.4578016338 0.0401485
15.9564448434 0.0222171
16.4550883313 0.0225945
16.9537320975 0.0317687
17.4523761422 0.0857456
17.9510204652 0.246127
18.4496650667 0.42283
18.9483099467 0.540629
19.4469551052 0.624784
19.9456005423 0.679477
20.4442462579 0.634747
20.9428922522 0.542351
21.4415385251 0.481885
21.9401850768 0.484135
22.4388319071 0.437609
22.9374790162 0.400029
23.4361264041 0.372306
23.9347740708 0.361365
24.4334220163 0.405893
24.9320702408 0.529581
