-24.9783955394 1.00022
-24.4788323178 0.990488
-23.979268905 0.98764
-23.479705301 0.99789
-22.9801415058 1.00124
-22.4805775193 1.03037
-21.9810133415 1.06676
-21.4814489724 1.08381
-20.9818844121 1.09659
-20.4823196604 1.09287
-19.9827547175 1.07378
-19.4831895832 1.0636
-18.9836242576 1.06122
-18.4840587406 1.03561
-17.9844930323 1.00053
-17.4849271326 0.985345
-16.9853610416 0.990778
-16.4857947591 1.00807
-15.9862282853 0.987011
-15.48666162 0.921157
-14.9870947634 0.822215
-14.4875277153 0.761286
-13.9879604757 0.720053
-13.4883930447 0.694745
-12.9888254223 0.67983
-12.4892576083 0.664014
-11.9896896029 0.639291
-11.490121406 0.592431
-10.9905530176 0.524679
-10.4909844377 0.476017
-9.99141566622 0.41189
-9.49184670322 0.359764
-8.99227754868 0.293422
-8.49270820258 0.194521
-7.99313866491 0.107894
-7.49356893566 0.0484467
-6.99399901481 0.028142
-6.49442890237 0.0282582
-5.99485859831 0.033086
-5.49528810264 0.0376065
-4.99571741532 0.0423557
-4.49614653637 0.0436759
-3.99657546575 0.0401984
-3.49700420348 0.0345317
-2.99743274952 0.0294202
-2.49786110388 0.0210475
-1.99828926654 0.0289754
-1.4987172375 0.0369376
-0.99914501673 0.0284187
-0.499572604235 0.0307757
0 0.0306733
0.499572795986 0.0300921
0.999145783732 0.0216316
1.49871896325 0.0211313
1.99829233455 0.0181192
2.49786589765 0.00259227
2.99743965255 0
3.49701359926 0.0191794
3.99658773779 0.0227187
4.49616206817 0.0114934
4.99573659039 0.0267124
5.49531130446 0.0330086
5.9948862104 0.0529872
6.49446130822 0.104511
6.99403659793 0.186225
7.49361207954 0.277149
7.99318775305 0.371091
8.49276361849 0.472598
8.99233967585 0.568269
9.49191592516 0.660656
9.99149236642 0.747763
10.4910689996 0.816102
10.9906458248 0.86402
11.490222842 0.90713
11.9898000512 0.933246
12.4893774524 0.901673
12.9889550455 0.826216
13.4885328308 0.699376
13.988110808 0.586223
14.4876889773 0.59166
14.9872673386 0.609739
15.4868458921 0.638829
15.9864246376 0.66758
16.4860035751 0.688352
16.9855827048 0.706591
17.4851620266 0.737455
17.9847415405 0.774998
18.4843212465 0.786922
18.9839011447 0.775876
19.4834812351 0.793989
19.9830615175 0.808428
20.4826419922 0.86124
20.982222659 0.909165
21.4818035181 0.959513
21.9813845693 0.972687
22.4809658128 0.978577
22.9805472484 1.00298
23.4801288763 1.05609
23.9797106965 1.10517
24.4792927089 1.12617
24.9788749136 1.14743
