-24.9313760717 1.12871
-24.4327553152 1.13944
-23.9341342831 1.14668
-23.4355129754 1.15458
-22.9368913921 1.15813
-22.4382695331 1.15442
-21.9396473984 1.139
-21.4410249879 1.12345
-20.9424023016 1.11661
-20.4437793396 1.11384
-19.9451561016 1.10609
-19.4465325878 1.07043
-18.9479087981 1.03277
-18.4492847325 0.988704
-17.9506603908 0.94316
-17.4520357731 0.908659
-16.9534108794 0.876175
-16.4547857096 0.839355
-15.9561602637 0.811649
-15.4575345416 0.789087
-14.9589085433 0.778315
-14.4602822689 0.765968
-13.9616557181 0.745964
-13.4630288911 0.72308
-12.9644017877 0.71133
-12.465774408 0.705749
-11.9671467519 0.708467
-11.4685188194 0.692017
-10.9698906104 0.662914
-10.4712621249 0.633525
-9.97263336289 0.610229
-9.47400432433 0.605671
-8.97537500916 0.51383
-8.47674541737 0.433864
-7.97811554891 0.418548
-7.47948540376 0.392221
-6.98085498188 0.344692
-6.48222428324 0.28498
-5.9835933078 0.260968
-5.48496205553 0.226385
-4.98633052639 0.162831
-4.48769872035 0.148657
-3.98906663738 0.137299
-3.49043427745 0.0997826
-2.99180164051 0.133717
-2.49316872654 0.176944
-1.9945355355 0.190456
-1.49590206736 0.186542
-0.997268322089 0.172864
-0.498634299645 0.167577
0 0.191735
0.498634576882 0.212743
0.997269431034 0.228701
1.49590456249 0.218835
1.99453997128 0.201668
2.49317565745 0.16504
2.99181162102 0.148497
3.49044786203 0.127418
3.98908438051 0.106917
4.4877211765 0.0988356
4.98635825002 0.110559
5.48499560112 0.119851
5.98363322983 0.121075
6.48227113618 0.119911
6.9809093202 0.117035
7.47954778193 0.122473
7.9781865214 0.143072
8.47682553864 0.163783
8.9754648337 0.179336
9.47410440659 0.165915
9.97274425737 0.139475
10.471384386 0.101629
10.9700247927 0.055539
11.4686654773 0.0317024
11.9673064399 0.0251554
12.4659476805 0.0190543
12.9645891993 0.0116896
13.4632309961 0.0130417
13.9618730711 0.0200271
14.4605154243 0.0260308
14.9591580557 0.0274688
15.4578009653 0.0113535
15.9564441532 0
16.4550876194 0.0358937
16.953731364 0.103209
17.4523753869 0.217579
17.9510196882 0.378833
18.449664268 0.503776
18.9483091263 0.581077
19.4469542631 0.630761
19.9455996784 0.651422
20.4442453724 0.655139
20.9428913449 0.652635
21.4415375961 0.67344
21.9401841259 0.693914
22.4388309345 0.727603
22.9374780218 0.770145
23.4361253879 0.813133
23.9347730328 0.792458
24.4334209566 0.732239
24.9320691592 0.635552
