-24.9417504311 1.49041
-24.4429217059 1.50242
-23.9440927246 1.53391
-23.4452634873 1.59352
-22.9464339939 1.64033
-22.4476042445 1.6914
-21.9487742389 1.70846
-21.4499439772 1.64915
-20.9511134593 1.60862
-20.4522826852 1.56852
-19.9534516549 1.52126
-19.4546203683 1.49521
-18.9557888254 1.47531
-18.4569570262 1.46652
-17.9581249706 1.4277
-17.4592926587 1.41962
-16.9604600904 1.37445
-16.4616272656 1.32347
-15.9627941844 1.26111
-15.4639608467 1.19861
-14.9651272524 1.18863
-14.4662934016 1.216
-13.9674592943 1.21651
-13.4686249303 1.17084
-12.9697903097 1.12533
-12.4709554324 1.10559
-11.9721202984 1.04386
-11.4732849077 0.974381
-10.9744492603 0.942893
-10.475613356 0.93826
-9.97677719499 0.940813
-9.47794077711 0.874303
-8.97910410236 0.742019
-8.48026717072 0.611113
-7.98142998216 0.531237
-7.48259253664 0.527164
-6.98375483414 0.577067
-6.48491687463 0.609726
-5.98607865808 0.633536
-5.48724018447 0.620644
-4.98840145375 0.577845
-4.48956246591 0.556836
-3.99072322092 0.506946
-3.49188371875 0.398852
-2.99304395936 0.333203
-2.49420394273 0.345459
-1.99536366884 0.333063
-1.49652313765 0.278252
-0.997682349129 0.184635
-0.498841303256 0.198219
0 0.213725
0.498841560668 0.212773
0.997683378776 0.202452
1.49652545435 0.169512
1.99536778743 0.141312
2.49421037803 0.126263
2.99305322619 0.0993447
3.49189633192 0.0513879
3.99073969528 0.0139158
4.48958331627 0
4.98842719493 0.0310906
5.48727133129 0.0503448
5.98611572538 0.0373225
6.48496037722 0.0280134
6.98380528684 0.0312564
7.48265045428 0.0649966
7.98149587955 0.118834
8.4803415627 0.169097
8.97918750374 0.227908
9.47803370271 0.316762
9.97688015964 0.412326
10.4757268745 0.53818
10.9745738475 0.597532
11.4734210784 0.626173
11.9722685674 0.660679
12.4711163146 0.719545
12.9699643198 0.924151
13.4688125832 1.15
13.9676611048 1.27503
14.4665098846 1.31661
14.9653589227 1.2203
15.464208219 1.08615
15.9630577736 0.991363
16.4619075865 0.948919
16.9607576578 0.930921
17.4596079874 0.918901
17.9584585755 0.926173
18.457309422 0.923808
18.956160527 0.916907
19.4550118905 0.992423
19.9538635124 1.06152
20.452715393 1.07852
20.9515675321 1.13888
21.4504199299 1.1306
21.9492725862 1.14717
22.4481255013 1.10896
22.946978675 1.02948
23.4458321075 1.02825
23.9446857987 1.05229
24.4435397486 1.05548
24.9423939574 1.06804
