-24.9752762901 0.418572
-24.4757756716 0.526408
-23.976274853 0.586281
-23.4767738343 0.572605
-22.9772726154 0.601204
-22.4777711965 0.599359
-21.9782695773 0.591977
-21.478767758 0.580934
-20.9792657385 0.585595
-20.4797635189 0.581135
-19.980261099 0.570627
-19.480758479 0.573041
-18.9812556587 0.570162
-18.4817526381 0.556002
-17.9822494174 0.567766
-17.4827459963 0.586493
-16.983242375 0.595411
-16.4837385534 0.601853
-15.9842345315 0.603452
-15.4847303093 0.601988
-14.9852258868 0.590618
-14.4857212639 0.572429
-13.9862164407 0.57144
-13.4867114171 0.576686
-12.9872061932 0.604089
-12.4877007688 0.628579
-11.9881951441 0.660076
-11.488689319 0.67233
-10.9891832934 0.658975
-10.4896770674 0.600595
-9.990170641 0.53002
-9.49066401411 0.446022
-8.99115718675 0.369959
-8.49165015891 0.329667
-7.99214293058 0.32486
-7.49263550173 0.288168
-6.99312787237 0.244769
-6.49362004248 0.228875
-5.99411201204 0.233133
-5.49460378105 0.228091
-4.99509534949 0.201974
-4.49558671735 0.165944
-3.99607788462 0.119222
-3.49656885129 0.0652329
-2.99705961733 0.0314767
-2.49755018275 0.0130318
-1.99804054753 0.00220948
-1.49853071166 0
-0.999020675121 0.00103346
-0.499510437905 0.0076447
0 0.00721302
0.499510638607 0.012104
0.999021477927 0.0297768
1.49853251797 0.0553132
1.99804375876 0.0819154
2.49755520029 0.11614
2.99706684259 0.130255
3.49657868566 0.147009
3.99609072952 0.239938
4.49560297417 0.285726
4.99511541964 0.312038
5.49462806593 0.3301
5.99414091305 0.325751
6.49365396102 0.324909
6.99316720985 0.333538
7.49268065955 0.342552
7.99219431014 0.330489
8.49170816162 0.31906
8.991222214 0.307611
9.49073646731 0.307983
9.99025092155 0.299667
10.4897655767 0.268684
10.9892804329 0.258637
11.48879549 0.254166
11.9883107481 0.259556
12.4878262071 0.266225
12.9873418672 0.269863
13.4868577283 0.269146
13.9863737904 0.27279
14.4858900536 0.274549
14.9854065178 0.267373
15.4849231831 0.265012
15.9844400494 0.268254
16.4839571169 0.273208
16.9834743854 0.281105
17.4829918551 0.280781
17.9825095258 0.284934
18.4820273977 0.2812
18.9815454708 0.278722
19.481063745 0.288648
19.9805822204 0.307175
20.480100897 0.355082
20.9796197748 0.430501
21.4791388537 0.555367
21.9786581339 0.747464
22.4781776154 0.950283
22.977697298 1.1032
23.477217182 1.20583
23.9767372671 1.27702
24.4762575536 1.33942
24.9757780414 1.34235
