-24.9327157532 1.17453
-24.4340681414 1.2271
-23.9354202566 1.22474
-23.4367720986 1.20607
-22.9381236675 1.19381
-22.4394749632 1.19919
-21.9408259857 1.20792
-21.442176735 1.2195
-20.9435272111 1.23704
-20.4448774138 1.2524
-19.9462273431 1.27296
-19.4475769992 1.28225
-18.9489263818 1.27864
-18.4502754909 1.26475
-17.9516243266 1.23347
-17.4529728888 1.2051
-16.9543211775 1.16241
-16.4556691925 1.11014
-15.957016934 1.06303
-15.4583644019 1.01747
-14.9597115961 0.992098
-14.4610585165 0.974491
-13.9624051633 0.937908
-13.4637515362 0.890591
-12.9650976354 0.819711
-12.4664434607 0.765122
-11.9677890122 0.716028
-11.4691342897 0.697946
-10.9704792933 0.682166
-10.471824023 0.688497
-9.97316847864 0.687592
-9.47451266025 0.678189
-8.97585656779 0.672303
-8.47720020123 0.66282
-7.97854356054 0.666179
-7.47988664568 0.683848
-6.98122945661 0.692037
-6.48257199331 0.697462
-5.98391425575 0.696962
-5.48525624388 0.709757
-4.98659795768 0.705943
-4.48793939711 0.705403
-3.98928056214 0.668045
-3.49062145274 0.645577
-2.99196206887 0.612093
-2.4933024105 0.529157
-1.9946424776 0.412301
-1.49598227013 0.279272
-0.997321788063 0.172488
-0.498661031364 0.0827641
0 0.0244039
0.498661306062 0
0.997322886855 0.00267229
1.49598474241 0.00877444
1.99464687277 0.0146941
2.49330927795 0.0113593
2.991971958 0.0074686
3.49063491295 0.00531612
3.98929814282 0.00585812
4.48796164766 0.0130013
4.98662542749 0.0148656
5.48528948235 0.00980209
5.98395381228 0.00760657
6.48261841729 0.00980618
6.98128329744 0.0161955
7.47994845274 0.0530976
7.97861388324 0.142306
8.47727958897 0.241627
8.97594556995 0.357994
9.47461182623 0.370733
9.97327835783 0.380888
10.4719451648 0.443864
10.9706122471 0.415783
11.4692796049 0.307165
11.9679472381 0.205777
12.4666151469 0.138252
12.9652833311 0.122162
13.4639517909 0.13656
13.9626205263 0.170798
14.4612895373 0.205788
14.959958824 0.235939
15.4586283863 0.261261
15.9572982244 0.282782
16.4559683382 0.319374
16.9546387278 0.359407
17.4533093933 0.380335
17.9519803345 0.426847
18.4506515517 0.509779
18.9493230448 0.599175
19.4479948138 0.687921
19.9466668588 0.799227
20.4453391799 0.909288
20.9440117769 0.954289
21.4426846501 0.946329
21.9413577994 0.93153
22.4400312248 0.921936
22.9387049264 0.899031
23.4373789042 0.897446
23.9360531583 0.893841
24.4347276886 0.876494
24.9334024952 0.867956
