-24.9326977912 0.472191
-24.4340505358 0.480132
-23.9354030075 0.487066
-23.4367552061 0.509297
-22.9381071318 0.540402
-22.4394587843 0.578014
-21.9408101638 0.608483
-21.4421612702 0.623744
-20.9435121034 0.63036
-20.4448626635 0.622089
-19.9462129503 0.606228
-19.4475629639 0.575762
-18.9489127041 0.553622
-18.4502621711 0.56423
-17.9516113647 0.584173
-17.4529602849 0.61048
-16.9543089317 0.620571
-16.455657305 0.639194
-15.9570054049 0.662684
-15.4583532312 0.679492
-14.959700784 0.684532
-14.4610480632 0.655701
-13.9623950688 0.623458
-13.4637418007 0.596224
-12.9650882589 0.568197
-12.4664344434 0.537408
-11.9677803542 0.522321
-11.4691259911 0.506403
-10.9704713543 0.527397
-10.4718164436 0.529164
-9.97316125899 0.52553
-9.47450580048 0.524712
-8.97585006802 0.521568
-8.47719406158 0.535136
-7.97853778111 0.550052
-7.47988122659 0.52309
-6.98122439799 0.487992
-6.48256729526 0.484982
-5.98390991839 0.500701
-5.48525226733 0.564555
-4.98659434205 0.619374
-4.48793614252 0.619702
-3.98927766871 0.613405
-3.49061892058 0.547185
-2.9919598981 0.406114
-2.49330060124 0.256697
-1.99464102996 0.157012
-1.49598118422 0.0828157
-0.99732106401 0.082863
-0.49866066928 0.0814619
0 0.0892734
0.498660943861 0.0955423
0.997322162338 0.103263
1.49598365546 0.107762
1.99464542327 0.101912
2.49330746579 0.100487
2.99196978306 0.129016
3.49063237511 0.161837
3.98929524197 0.196987
4.48795838368 0.272271
4.98662180027 0.387408
5.48528549177 0.511667
5.98394945822 0.62641
6.48261369965 0.674693
6.98127821608 0.688454
7.47994300757 0.66571
7.97860807413 0.648392
8.4772734158 0.676431
8.97593903261 0.716326
9.4746049246 0.735646
9.9732710918 0.737472
10.4719375342 0.71717
10.970604252 0.674864
11.469271245 0.646507
11.9679385134 0.644224
12.4666060571 0.665258
12.9652738762 0.707241
13.4639419708 0.79129
13.9626103409 0.918767
14.4612789865 1.0179
14.9599479076 1.1058
15.4586171042 1.20184
15.9572865765 1.28815
16.4559563244 1.34959
16.954626348 1.34697
17.4532966473 1.32462
17.9519672223 1.29602
18.4506380731 1.20907
18.9493091997 1.05152
19.4479806022 0.860257
19.9466522805 0.655062
20.4453242347 0.499977
20.9439964648 0.36159
21.4426689709 0.168263
21.941341753 0
22.4400148111 0.0221273
22.9386881453 0.0479554
23.4373617556 0.0748402
23.936035642 0.182097
24.4347098046 0.333759
24.9333842434 0.46497
