-24.9320331514 0.797105
-24.4333992933 0.767074
-23.9347651581 0.746753
-23.4361307456 0.72875
-22.9374960558 0.712754
-22.4388610887 0.712369
-21.9402258442 0.723216
-21.4415903224 0.728507
-20.9429545231 0.727091
-20.4443184464 0.721033
-19.9456820922 0.706669
-19.4470454605 0.706458
-18.9484085512 0.70644
-18.4497713643 0.704237
-17.9511338999 0.709953
-17.4524961577 0.717248
-16.9538581379 0.716542
-16.4552198404 0.717905
-15.9565812651 0.716294
-15.457942412 0.703675
-14.9593032811 0.68814
-14.4606638723 0.693649
-13.9620241857 0.691694
-13.4633842211 0.695747
-12.9647439785 0.696093
-12.466103458 0.687048
-11.9674626595 0.66454
-11.4688215829 0.643525
-10.9701802282 0.630746
-10.4715385954 0.611422
-9.97289668438 0.588287
-9.47425449521 0.551536
-8.97561202781 0.506911
-8.47696928216 0.497271
-7.97832625821 0.486006
-7.47968295594 0.419917
-6.98103937531 0.342055
-6.48239551628 0.312221
-5.98375137883 0.296307
-5.48510696292 0.292907
-4.98646226852 0.285056
-4.48781729559 0.266471
-3.9891720441 0.241077
-3.49052651401 0.19472
-2.9918807053 0.140956
-2.49323461793 0.0994435
-1.99458825187 0.0893557
-1.49594160708 0.0880604
-0.997294683523 0.093084
-0.498647481175 0.0931857
0 0.109975
0.498647760036 0.114776
0.997295798966 0.0793449
1.49594411682 0.0627835
1.99459271364 0.0765533
2.49324158946 0.0791448
2.9918907443 0.069476
3.4905401782 0.0583267
3.9891898912 0.0444874
4.48783988333 0.0487085
4.98649015461 0.0549347
5.4851407051 0.0516
5.98379153481 0.0370417
6.48244264378 0
6.98109403204 0.0325601
7.47974569964 0.19789
7.97839764659 0.422038
8.47704987294 0.623775
8.97570237872 0.717833
9.47435516396 0.736619
9.97300822869 0.718716
10.471661573 0.708794
10.9703151968 0.704475
11.4689691002 0.703768
11.9676232832 0.683015
12.4662777459 0.654031
12.9649324883 0.649004
13.4635875105 0.647115
13.9622428124 0.574152
14.460898394 0.516573
14.9595542555 0.505309
15.4582103969 0.55847
15.9568668182 0.656202
16.4555235194 0.753158
16.9541805005 0.824094
17.4528377616 0.847385
17.9514953028 0.869361
18.450153124 0.901532
18.9488112253 0.927369
19.4474696068 0.944501
19.9461282684 0.955506
20.4447872102 0.948598
20.9434464322 0.913097
21.4421059345 0.866615
21.940765717 0.819145
22.4394257799 0.684553
22.9380861232 0.508191
23.4367467468 0.394301
23.9354076509 0.337162
24.4340688354 0.275838
24.9327303004 0.192215
