-25.058427739 0.874107
-24.5572624274 0.898224
-24.0560969829 0.924972
-23.5549314057 0.97549
-23.0537656956 1.00711
-22.5525998528 1.02315
-22.0514338773 1.06712
-21.5502677691 1.09248
-21.0491015282 1.12654
-20.5479351547 1.10855
-20.0467686486 1.11005
-19.54560201 1.09907
-19.0444352387 1.05874
-18.543268335 1.01831
-18.0421012988 0.968407
-17.5409341301 0.917445
-17.039766829 0.904569
-16.5385993954 0.91567
-16.0374318295 0.906901
-15.5362641313 0.852568
-15.0350963007 0.806649
-14.5339283379 0.772442
-14.0327602428 0.744303
-13.5315920154 0.723376
-13.0304236559 0.697887
-12.5292551642 0.653142
-12.0280865403 0.568725
-11.5269177844 0.603628
-11.0257488963 0.692441
-10.5245798762 0.742647
-10.0234107241 0.79041
-9.52224143996 0.839377
-9.02107202385 0.89123
-8.51990247581 0.96821
-8.01873279585 1.07866
-7.51756298401 1.1695
-7.01639304031 1.21022
-6.51522296479 1.24093
-6.01405275747 1.23701
-5.51288241839 1.22875
-5.01171194756 1.1638
-4.51054134502 1.04622
-4.00937061081 0.921276
-3.50819974494 0.793406
-3.00702874744 0.675304
-2.50585761835 0.602338
-2.0046863577 0.58617
-1.50351496551 0.545067
-1.00234344181 0.524363
-0.501171786629 0.474168
0 0.439397
0.501171918051 0.43206
1.00234396749 0.435996
1.5035161483 0.445453
2.00468846044 0.428607
2.50586090389 0.38862
3.00703347861 0.378632
3.50820618458 0.404023
4.00937902177 0.439515
4.51055199015 0.482203
5.01172508969 0.528081
5.51289832037 0.596287
6.01407168214 0.696098
6.51524517499 0.792928
7.01641879889 0.826916
7.5175925538 0.833784
8.0187664397 0.80415
8.51994045656 0.729708
9.02111460435 0.641081
9.52228888303 0.577296
10.0234632926 0.552377
10.524637833 0.578529
11.0258125042 0.614696
11.5269873062 0.634053
12.028162239 0.659206
12.5293373024 0.696311
13.0305124966 0.732934
13.5316878215 0.765381
14.032863277 0.779258
14.5340388631 0.73018
15.0352145797 0.628564
15.536390427 0.486249
16.0375664047 0.287675
16.538742513 0.109962
17.0399187517 0.0119102
17.5410951208 0
18.0422716204 0.0184989
18.5434482503 0.0592002
19.0446250106 0.119586
19.5458019012 0.144803
20.0469789221 0.155426
20.5481560733 0.152715
21.0493333547 0.135147
21.5505107663 0.117317
22.051688308 0.109465
22.55286598 0.110797
23.054043782 0.113623
23.5552217141 0.146841
24.0563997763 0.201955
24.5575779685 0.247264
25.0587562907 0.31848
