-25.0582398159 1.67933
-24.557078258 1.71152
-24.0559165674 1.69866
-23.5547547442 1.70005
-23.0535927884 1.71589
-22.5524307001 1.73495
-22.0512684793 1.76055
-21.5501061259 1.76313
-21.0489436401 1.76131
-20.5477810219 1.75691
-20.0466182713 1.74885
-19.5454553882 1.75353
-19.0442923729 1.81624
-18.5431292252 1.87983
-18.0419659452 1.88993
-17.5408025329 1.84847
-17.0396389884 1.78306
-16.5384753117 1.6853
-16.0373115028 1.61467
-15.5361475618 1.56499
-15.0349834886 1.55147
-14.5338192834 1.58548
-14.0326549461 1.59758
-13.5314904767 1.59185
-13.0303258754 1.60105
-12.529161142 1.63686
-12.0279962768 1.67473
-11.5268312796 1.72021
-11.0256661505 1.73805
-10.5245008895 1.72852
-10.0233354967 1.7402
-9.52216997212 1.70627
-9.02100431574 1.71138
-8.51983852762 1.71976
-8.01867260778 1.68674
-7.51750655625 1.71282
-7.01634037306 1.7537
-6.51517405823 1.80036
-6.0140076118 1.82292
-5.5128410338 1.85999
-5.01167432425 1.94432
-4.51050748318 1.90623
-4.00934051062 1.79425
-3.5081734066 1.64903
-3.00700617115 1.50195
-2.5058388043 1.42562
-2.00467130607 1.38106
-1.5035036765 1.30772
-1.00233591561 1.22966
-0.501168023434 1.16238
0 1.11915
0.501168154663 1.07268
1.00233644053 1.04649
1.50350485756 1.02706
2.00467340575 1.05677
2.50584208504 1.09099
3.00701089542 1.13729
3.50817983686 1.18745
4.00934890932 1.21804
4.51051811279 1.25756
5.01168744722 1.33665
5.5128569126 1.37206
6.01402650889 1.395
6.51519623606 1.42627
7.01636609408 1.47054
7.51753608294 1.51876
8.01870620259 1.59169
8.519876453 1.62013
9.02104683416 1.60607
9.52221734603 1.62905
10.0233879886 1.71747
10.5245587618 1.75388
11.0257296656 1.73443
11.5269007 1.69536
12.028071865 1.67135
12.5292431605 1.62853
13.0304145866 1.57052
13.5315861431 1.43736
14.0327578301 1.25066
14.5339296474 0.993226
15.0351015952 0.750156
15.5362736734 0.524328
16.0374458818 0.288154
16.5386182206 0.0871157
17.0397906897 0
17.540963289 0.0512158
18.0421360185 0.0924752
18.5433088782 0.0878596
19.0444818681 0.0943987
19.5456549881 0.107871
20.0468282382 0.132022
20.5480016184 0.177487
21.0491751286 0.216666
21.5503487689 0.272034
22.0515225391 0.30861
22.5526964393 0.376365
23.0538704694 0.451205
23.5550446295 0.517918
24.0562189194 0.585134
24.5573933391 0.659224
25.0585678887 0.75369
