-25.0585216378 1.02236
-24.5573544506 1.03197
-24.0561871304 1.04622
-23.5550196774 1.04922
-23.0538520914 1.05998
-22.5526843726 1.06613
-22.0515165211 1.06571
-21.5503485367 1.06827
-21.0491804195 1.07976
-20.5480121696 1.0973
-20.0468437871 1.1147
-19.5456752718 1.12137
-19.0445066239 1.12758
-18.5433378434 1.1368
-18.0421689303 1.1484
-17.5409998847 1.16197
-17.0398307065 1.17116
-16.5386613958 1.17441
-16.0374919527 1.19549
-15.5363223771 1.21457
-15.0351526691 1.21876
-14.5339828287 1.23591
-14.0328128559 1.23236
-13.5316427508 1.24005
-13.0304725135 1.25575
-12.5293021438 1.26584
-12.028131642 1.3125
-11.5269610079 1.34962
-11.0257902416 1.35688
-10.5246193432 1.38548
-10.0234483126 1.44046
-9.52227714997 1.53533
-9.02110585526 1.52781
-8.51993442851 1.55866
-8.01876286975 1.58936
-7.51759117901 1.52641
-7.01641935632 1.50491
-6.51524740171 1.51453
-6.0140753152 1.47044
-5.51290309683 1.33112
-5.01173074663 1.22054
-4.51055826462 1.11035
-4.00938565083 1.0308
-3.50821290529 0.9217
-3.00704002803 0.847337
-2.50586701909 0.796527
-2.00469387848 0.750334
-1.50352060623 0.684863
-1.00234720239 0.627572
-0.501173666967 0.572097
0 0.508412
0.501173798485 0.433003
1.00234772846 0.365149
1.50352178989 0.343959
2.00469598275 0.340387
2.50587030701 0.361015
3.00704476264 0.404565
3.50821934962 0.454
4.00939406791 0.522784
4.51056891749 0.592265
5.01174389833 0.62385
5.51291901039 0.643735
6.01409425364 0.700351
6.51526962807 0.773888
7.01644513364 0.829718
7.51762077032 0.893705
8.01879653808 0.920799
8.5199724369 0.90562
9.02114846674 0.847853
9.52232462757 0.798054
10.0235009194 0.760311
10.5246773421 0.709699
11.0258538958 0.63439
11.5270305803 0.579075
12.0282073957 0.575958
12.5293843419 0.581362
13.0305614188 0.582417
13.5317386266 0.551392
14.0329159651 0.496385
14.5340934343 0.29618
15.0352710341 0.111216
15.5364487646 0.011872
16.0376266258 0
16.5388046175 0.0717083
17.0399827398 0.091156
17.5411609926 0.0718808
18.0423393759 0.0566352
18.5435178897 0.0514214
19.0446965339 0.0702197
19.5458753085 0.106635
20.0470542136 0.13549
20.5482332489 0.15082
21.0494124146 0.171802
21.5505917107 0.231849
22.0517711369 0.289843
22.5529506934 0.372147
23.0541303802 0.457607
23.5553101971 0.529591
24.0564901441 0.578987
24.5576702213 0.549976
25.0588504286 0.534912
