-25.0582711479 1.58857
-24.5571089641 1.59132
-24.0559466477 1.5904
-23.5547841986 1.5685
-23.0536216169 1.54524
-22.5524589026 1.50935
-22.0512960557 1.44208
-21.5501330764 1.32795
-21.0489699645 1.24145
-20.5478067202 1.21975
-20.0466433434 1.20596
-19.5454798342 1.18661
-19.0443161926 1.19975
-18.5431524186 1.2276
-18.0419885124 1.24773
-17.5408244738 1.25063
-17.039660303 1.25355
-16.5384959999 1.28161
-16.0373315646 1.27799
-15.5361669972 1.32459
-15.0350022976 1.37239
-14.5338374658 1.42723
-14.032672502 1.43941
-13.5315074061 1.40562
-13.0303421781 1.36597
-12.5291768182 1.32534
-12.0280113262 1.26387
-11.5268457023 1.17955
-11.0256799465 1.0947
-10.5245140588 1.05551
-10.0233480392 1.07958
-9.5221818878 1.09086
-9.02101560458 1.15783
-8.51984918957 1.18811
-8.01868264282 1.18156
-7.51751596434 1.2086
-7.01634915416 1.24439
-6.51518221233 1.25679
-6.01401513885 1.27785
-5.51284793377 1.30056
-5.01168059711 1.28823
-4.5105131289 1.21679
-4.00934552916 1.13615
-3.50817779794 1.13014
-3.00700993525 1.10759
-2.50584194113 1.10619
-2.0046738156 1.11474
-1.50350555869 1.10402
-1.00233717044 1.12249
-0.501168650864 1.1279
0 1.10051
0.501168782125 1.05531
1.00233769548 1.00521
1.50350674005 0.990612
2.00467591579 1.04045
2.50584522267 1.11696
3.00701466067 1.15972
3.50818422976 1.21057
4.00935392991 1.28249
4.51052376109 1.3519
5.01169372328 1.42066
5.51286381643 1.48271
6.01403404054 1.52291
6.51520439555 1.51167
7.01637488146 1.52489
7.51754549822 1.5119
8.01871624581 1.49983
8.5198871242 1.53351
9.02105813336 1.55433
9.52222927326 1.59261
10.0234005439 1.64366
10.5245719452 1.68042
11.0257434771 1.68035
11.5269151397 1.62294
12.0280869329 1.55877
12.5292588566 1.48298
13.0304309109 1.41396
13.5316030957 1.34565
14.032775411 1.26907
14.5339478568 1.10485
15.0351204329 0.87714
15.5362931395 0.598126
16.0374659764 0.317302
16.5386389436 0.15495
17.0398120412 0.0567248
17.5409852691 0.0115856
18.0421586272 0
18.5433321155 0.0312676
19.044505734 0.0616157
19.5456794827 0.0795593
20.0468533615 0.0968474
20.5480273704 0.139539
21.0492015094 0.266204
21.5503757784 0.410061
22.0515501775 0.546391
22.5527247065 0.617239
23.0538993655 0.719291
23.5550741545 0.820654
24.0562490733 0.920672
24.557424122 1.00287
25.0585993006 1.00718
