-25.0479805622 1.18083
-24.5470258606 1.1892
-24.0460709582 1.19844
-23.5451158551 1.20736
-23.0441605513 1.21816
-22.5432050467 1.22888
-22.0422493415 1.23958
-21.5412934357 1.25163
-21.0403373292 1.26236
-20.5393810221 1.27337
-20.0384245144 1.28612
-19.5374678062 1.29842
-19.0365108974 1.31044
-18.5355537881 1.32319
-18.0345964783 1.33541
-17.5336389681 1.34637
-17.0326812574 1.3571
-16.5317233463 1.36627
-16.0307652348 1.37562
-15.5298069229 1.38349
-15.0288484107 1.38942
-14.5278896982 1.39502
-14.0269307853 1.39847
-13.5259716722 1.40085
-13.0250123589 1.39945
-12.5240528453 1.39626
-12.0230931315 1.39081
-11.5221332175 1.38191
-11.0211731033 1.37029
-10.5202127891 1.35743
-10.0192522747 1.34085
-9.51829156021 1.32077
-9.01733064567 1.29704
-8.51636953109 1.26028
-8.01540821649 1.19349
-7.51444670191 1.11827
-7.01348498735 1.05182
-6.51252307285 1.00958
-6.01156095842 1.00479
-5.51059864409 1.03344
-5.0096361299 1.06205
-4.50867341585 1.06054
-4.00771050197 1.09707
-3.50674738829 1.18215
-3.00578407482 1.33702
-2.50482056161 1.429
-2.00385684866 1.40107
-1.502892936 1.25709
-1.00192882365 1.11057
-0.500964511643 1.00788
0 0.986823
0.50096471126 0.99529
1.00192962211 0.975087
1.50289473252 0.968108
2.00386004248 0.952016
2.50482555196 0.93713
3.00579126093 0.932472
3.50675716938 0.941739
4.00772327727 0.973603
4.50868958459 0.975918
5.0096560913 0.937182
5.5106227974 0.919678
6.01158970285 0.902857
6.51255680762 0.916833
7.01352411171 0.926562
7.51449161507 0.915404
8.01545931769 0.945817
8.51642721954 1.01056
9.01739532061 1.05524
9.51836362086 1.06805
10.0193321203 1.0496
10.5203008188 1.00779
11.0212697165 0.937759
11.5222388133 0.863796
12.0232081091 0.813938
12.524177604 0.785894
13.0251472978 0.754398
13.5261171907 0.770879
14.0270872826 0.817259
14.5280575734 0.854178
15.0290280631 0.837532
15.5299987517 0.704521
16.0309696392 0.609563
16.5319407256 0.559223
17.0329120108 0.505336
17.5338834948 0.423868
18.0348551776 0.318457
18.5358270591 0.267029
19.0367991393 0.245603
19.5377714183 0.195302
20.038743896 0.124035
20.5397165723 0.0744271
21.0406894472 0.0209852
21.5416625208 0
22.042635793 0.0106851
22.5436092637 0.0384828
23.044582933 0.0542219
23.5455568007 0.0625394
24.046530867 0.075972
24.5475051318 0.0606583
25.048479595 0.0608725
