-25.0584590433 0.747585
-24.5572931064 0.761717
-24.0561270366 0.750624
-23.554960834 0.751901
-23.0537944985 0.769227
-22.5526280303 0.781303
-22.0514614293 0.808853
-21.5502946957 0.820898
-21.0491278293 0.820564
-20.5479608302 0.814802
-20.0467936985 0.809643
-19.5456264342 0.832056
-19.0444590374 0.825943
-18.5432915079 0.828239
-18.042123846 0.828631
-17.5409560516 0.833036
-17.0397881247 0.844046
-16.5386200653 0.844299
-16.0374518736 0.835925
-15.5362835495 0.822341
-15.035115093 0.815606
-14.5339465042 0.830854
-14.0327777831 0.832446
-13.5316089298 0.814153
-13.0304399442 0.804341
-12.5292708264 0.815344
-12.0281015765 0.819584
-11.5269321944 0.813916
-11.0257626802 0.826863
-10.5245930338 0.823025
-10.0234232555 0.813865
-9.52225334508 0.811542
-9.02108330268 0.810221
-8.51991312831 0.802337
-8.01874282199 0.807861
-7.51757238375 0.819297
-7.01640181363 0.846739
-6.51523111165 0.879533
-6.01406027784 0.915012
-5.51288931224 0.934305
-5.01171821486 0.933854
-4.51054698573 0.947366
-4.0093756249 0.91373
-3.50820413238 0.846449
-3.0070325082 0.770182
-2.5058607524 0.700774
-2.004688865 0.641928
-1.50351684603 0.631874
-1.00234469552 0.616042
-0.501172413503 0.593587
0 0.571184
0.501172544956 0.561615
1.00234522134 0.508708
1.50351802911 0.434858
2.00469096825 0.355246
2.50586403873 0.307008
3.00703724052 0.288094
3.50821057359 0.313786
4.00938403791 0.377396
4.51055763345 0.461022
5.01173136018 0.5545
5.51290521808 0.637436
6.01407920711 0.733378
6.51525332724 0.821935
7.01642757846 0.880864
7.51760196072 0.9055
8.018776474 0.909261
8.51995111828 0.855966
9.02112589351 0.782932
9.52230079967 0.734769
10.0234758367 0.720877
10.5246510047 0.761432
11.0258263035 0.798721
11.5270017331 0.80842
12.0281772935 0.828508
12.5293529846 0.869415
13.0305288065 0.895133
13.5317047591 0.909499
14.0328808423 0.870091
14.5340570562 0.763795
15.0352334007 0.650212
15.5364098758 0.518115
16.0375864814 0.35174
16.5387632176 0.165699
17.0399400843 0.0265584
17.5411170814 0
18.042294209 0.0104545
18.5434714669 0.0336249
19.0446488553 0.0499378
19.545826374 0.0541949
20.047004023 0.0522655
20.5481818024 0.0686032
21.049359712 0.119641
21.5505377518 0.176897
22.0517159218 0.218168
22.552894222 0.270047
23.0540726524 0.330068
23.5552512129 0.386878
24.0564299034 0.459816
24.5576087241 0.444073
25.0587876747 0.417794
