-25.0584903429 0.940298
-24.5573237808 0.961706
-24.0561570858 0.972585
-23.5549902579 0.970623
-23.0538232971 0.975532
-22.5526562036 0.993432
-22.0514889773 1.01628
-21.5503216182 1.03955
-21.0491541264 1.05114
-20.5479865019 1.06273
-20.0468187447 1.07527
-19.5456508549 1.09168
-19.0444828324 1.0967
-18.5433146774 1.09635
-18.0421463899 1.09054
-17.5409779698 1.08793
-17.0398094172 1.10763
-16.5386407321 1.12389
-16.0374719146 1.12855
-15.5363029647 1.14277
-15.0351338824 1.14728
-14.5339646678 1.1469
-14.0327953208 1.14564
-13.5316258416 1.14243
-13.0304562301 1.14213
-12.5292864863 1.148
-12.0281166103 1.1554
-11.5269466022 1.13353
-11.0257764619 1.11348
-10.5246061895 1.08608
-10.023435785 1.05957
-9.52226524842 1.05882
-9.02109457982 1.04386
-8.51992377921 1.03085
-8.01875284662 1.02805
-7.51758178209 1.03229
-7.01641058564 1.03497
-6.51523925729 1.02419
-6.01406779709 0.998913
-5.51289620505 0.97762
-5.01172448121 0.959324
-4.5105526256 0.949601
-4.00938063824 0.918644
-3.50820851917 0.876355
-3.0070362684 0.797612
-2.50586388598 0.760479
-2.00469137193 0.749337
-1.50351872628 0.797668
-1.00234594905 0.814439
-0.501173040283 0.780386
0 0.713792
0.501173171767 0.624235
1.00234647499 0.550681
1.50351990964 0.453853
2.00469347569 0.433486
2.50586717311 0.448533
3.00704100187 0.481889
3.50821496194 0.571181
4.00938905329 0.683039
4.51056327589 0.777259
5.01173762972 0.874998
5.51291211475 0.964023
6.01408673094 0.984376
6.51526147827 1.04245
7.01643635671 1.11031
7.51761136623 1.10212
8.0187865068 1.06488
8.51996177839 1.02521
9.02113718097 1.00816
9.52231271452 0.998708
10.023488379 0.99848
10.5246641744 0.972864
11.0258401006 0.93024
11.5270161578 0.928013
12.0281923457 0.929362
12.5293686644 0.926352
13.0305451139 0.92759
13.5317216941 0.874988
14.032898405 0.761852
14.5340752466 0.64527
15.0352522188 0.523273
15.5364293217 0.409894
16.0376065551 0.323423
16.5387839191 0.211557
17.0399614136 0.0958275
17.5411390386 0.0259466
18.0423167941 0
18.5434946801 0.0185132
19.0446726964 0.076336
19.5458508431 0.109596
20.0470291202 0.114517
20.5482075276 0.116983
21.0493860653 0.159147
21.5505647333 0.241718
22.0517435315 0.340645
22.5529224599 0.40557
23.0541015185 0.439647
23.5552807072 0.465401
24.0564600261 0.49646
24.557639475 0.555171
25.058819054 0.635992
