-25.0583024754 1.09009
-24.5571396658 1.10777
-24.0559767236 1.11192
-23.5548136487 1.07756
-23.0536504411 1.05879
-22.5524871009 1.05238
-22.0513236282 1.04587
-21.5501600229 1.03469
-21.048996285 1.01724
-20.5478324146 0.996233
-20.0466684118 0.981631
-19.5455042765 0.978862
-19.0443400088 0.994734
-18.5431756088 1.05834
-18.0420110763 1.16151
-17.5408464115 1.23813
-17.0396816145 1.27343
-16.5385166851 1.32169
-16.0373516235 1.3782
-15.5361864297 1.42861
-15.0350211037 1.47196
-14.5338556456 1.40816
-14.0326900553 1.33589
-13.5315243329 1.26993
-13.0303584785 1.21002
-12.529192492 1.16655
-12.0280263735 1.18364
-11.526860123 1.18545
-11.0256937405 1.18657
-10.5245272262 1.20812
-10.0233605799 1.2493
-9.52219380175 1.29077
-9.02102689176 1.31849
-8.51985984997 1.3609
-8.01869267638 1.40111
-7.51752537105 1.42665
-7.01635793398 1.43517
-6.51519036522 1.44973
-6.0140226648 1.40677
-5.51285483273 1.34022
-5.01168686905 1.26627
-4.51051877379 1.22729
-4.00935054697 1.22922
-3.50818218863 1.22548
-3.0070136988 1.22604
-2.5058450775 1.22297
-2.00467632476 1.21179
-1.50350744061 1.20056
-1.00233842508 1.20189
-0.501169278201 1.18716
0 1.14069
0.501169409496 1.01252
1.00233895026 0.917777
1.50350862225 0.902892
2.00467842546 0.944703
2.50584835984 1.02439
3.00701842537 1.09542
3.50818862202 1.17253
4.00935894977 1.25645
4.51052940857 1.3163
5.01169999841 1.32837
5.51287071926 1.31525
6.01404157108 1.27602
6.51521255385 1.25878
7.01638366754 1.2521
7.51755491211 1.30235
8.01872628755 1.36812
8.51989779382 1.43158
9.02106943089 1.47999
9.52224119874 1.54905
10.0234130973 1.6015
10.5245851266 1.60558
11.0257572866 1.56103
11.5269295773 1.50123
12.0281019986 1.42345
12.5292745504 1.31237
13.0304472329 1.1888
13.5316200459 1.0699
14.0327929894 0.977091
14.5339660634 0.86255
15.0351392678 0.676114
15.5363126027 0.448233
16.037486068 0.26277
16.5386596636 0.126697
17.0398333896 0
17.5410072459 0.0101605
18.0421812325 0.098354
18.5433553493 0.123645
19.0445295964 0.126645
19.5457039736 0.174641
20.046878481 0.262356
20.5480531186 0.397449
21.0492278862 0.5324
21.550402784 0.627512
22.0515778118 0.74263
22.5527529696 0.86079
23.0539282574 0.894109
23.5551036751 0.905939
24.0562792228 0.89124
24.5574549004 0.874365
25.0586307079 0.851216
